# popc % Change in outer leaflet for ppc2 junc
#  1st Col = Time (us)	 2nd Col = % Change
0.000000000000000000e+00 -6.196444773579442566e-01
8.077544426494346220e-04 -6.397183698488420056e-01
1.615508885298869244e-03 -6.496242669334860720e-01
2.423263327948304083e-03 -6.658000929314158434e-01
3.231017770597738488e-03 -6.813908339738303788e-01
4.038772213247172893e-03 -7.026519342407636648e-01
4.846526655896608166e-03 -7.272684843291864487e-01
5.654281098546042571e-03 -7.428064724778605799e-01
6.462035541195476976e-03 -7.625909483271553491e-01
7.269789983844911381e-03 -7.772974538917741816e-01
8.077544426494345786e-03 -8.037135697242788757e-01
8.885298869143781059e-03 -8.269785765271769895e-01
9.693053311793216331e-03 -8.464674342414127972e-01
1.050080775444264987e-02 -8.730614938349093856e-01
1.130856219709208514e-02 -8.941101794391895785e-01
1.211631663974151868e-02 -9.117093065211313574e-01
1.292407108239095395e-02 -9.292963725920028173e-01
1.373182552504038922e-02 -9.420150620756680970e-01
1.453957996768982276e-02 -9.536303937116069607e-01
1.534733441033925803e-02 -9.737122326923900451e-01
1.615508885298869157e-02 -9.882433270599251252e-01
1.696284329563812684e-02 -9.969829017841276286e-01
1.777059773828756212e-02 -1.004885240228902576e+00
1.857835218093699739e-02 -1.003758831268086293e+00
1.938610662358643266e-02 -1.016059098401340233e+00
2.019386106623586447e-02 -1.024716438840032273e+00
2.100161550888529974e-02 -1.026928846398829531e+00
2.180936995153473501e-02 -1.035358329621993700e+00
2.261712439418417028e-02 -1.045973119545732466e+00
2.342487883683360556e-02 -1.044249686323167836e+00
2.423263327948303736e-02 -1.051352179152578836e+00
2.504038772213247263e-02 -1.065300975561924934e+00
2.584814216478190790e-02 -1.063914729160492678e+00
2.665589660743134318e-02 -1.083005222379356036e+00
2.746365105008077845e-02 -1.099446240929948582e+00
2.827140549273021025e-02 -1.102049747595555296e+00
2.907915993537964552e-02 -1.103880078912434559e+00
2.988691437802908080e-02 -1.116567684720988218e+00
3.069466882067851607e-02 -1.122345224569492927e+00
3.150242326332795134e-02 -1.130508514013619292e+00
3.231017770597738314e-02 -1.135266442060273828e+00
3.311793214862682189e-02 -1.145515186375320349e+00
3.392568659127625369e-02 -1.156946716850110413e+00
3.473344103392568549e-02 -1.164295727098062505e+00
3.554119547657512423e-02 -1.163988958790148631e+00
3.634894991922455604e-02 -1.165358760878764555e+00
3.715670436187399478e-02 -1.180872511342341946e+00
3.796445880452342658e-02 -1.187970209578120162e+00
3.877221324717286532e-02 -1.196341451455161575e+00
3.957996768982229713e-02 -1.202852023089647782e+00
4.038772213247172893e-02 -1.210902875377427579e+00
4.119547657512116767e-02 -1.215589312095053387e+00
4.200323101777059948e-02 -1.223057075939502081e+00
4.281098546042003822e-02 -1.220459303610105684e+00
4.361873990306947002e-02 -1.217744059783436583e+00
4.442649434571890182e-02 -1.229773990078755652e+00
4.523424878836834057e-02 -1.230894668820238458e+00
4.604200323101777237e-02 -1.239294783603239969e+00
4.684975767366721111e-02 -1.248437240900489131e+00
4.765751211631664291e-02 -1.258076331411437376e+00
4.846526655896607472e-02 -1.269740564857612997e+00
4.927302100161551346e-02 -1.275784322688871431e+00
5.008077544426494526e-02 -1.277136145985034110e+00
5.088852988691438400e-02 -1.274486414112445454e+00
5.169628432956381581e-02 -1.278160646000759293e+00
5.250403877221324761e-02 -1.278403687345666118e+00
5.331179321486268635e-02 -1.275168775502994123e+00
5.411954765751211816e-02 -1.281915242443188996e+00
5.492730210016155690e-02 -1.276052903410765049e+00
5.573505654281098870e-02 -1.271910746766759859e+00
5.654281098546042050e-02 -1.263433048582300211e+00
5.735056542810985925e-02 -1.258944254099353399e+00
5.815831987075929105e-02 -1.265792174189534824e+00
5.896607431340872979e-02 -1.269812509071281736e+00
5.977382875605816159e-02 -1.276309535233498549e+00
6.058158319870759340e-02 -1.269162332034718510e+00
6.138933764135703214e-02 -1.271283832203403907e+00
6.219709208400646394e-02 -1.271228479247232368e+00
6.300484652665590268e-02 -1.272321892385389175e+00
6.381260096930534143e-02 -1.279267109198037655e+00
6.462035541195476629e-02 -1.284712377764440028e+00
6.542810985460420503e-02 -1.282802488519930506e+00
6.623586429725364377e-02 -1.292587331740396861e+00
6.704361873990306864e-02 -1.291900692429349906e+00
6.785137318255250738e-02 -1.290296212044293345e+00
6.865912762520194612e-02 -1.299784441948687919e+00
6.946688206785137099e-02 -1.302775302813728331e+00
7.027463651050080973e-02 -1.312427440185600203e+00
7.108239095315024847e-02 -1.324730148725233647e+00
7.189014539579968721e-02 -1.341196363164565364e+00
7.269789983844911208e-02 -1.339256965721767889e+00
7.350565428109855082e-02 -1.354294849918742605e+00
7.431340872374798956e-02 -1.369002880311111170e+00
7.512116316639741442e-02 -1.380507044628699331e+00
7.592891760904685317e-02 -1.396353704058177270e+00
7.673667205169629191e-02 -1.404719513798453612e+00
7.754442649434573065e-02 -1.405326084804838560e+00
7.835218093699515551e-02 -1.413613006894763435e+00
7.915993537964459426e-02 -1.421045394717438626e+00
7.996768982229403300e-02 -1.428063582970220846e+00
8.077544426494345786e-02 -1.441059651432421651e+00
8.158319870759289660e-02 -1.446483987236867996e+00
8.239095315024233535e-02 -1.459801017577567084e+00
8.319870759289176021e-02 -1.474542619955196532e+00
8.400646203554119895e-02 -1.490411334139315480e+00
8.481421647819063769e-02 -1.493008424474293161e+00
8.562197092084007644e-02 -1.500803136048387776e+00
8.642972536348950130e-02 -1.508802543357167902e+00
8.723747980613894004e-02 -1.515730179157907642e+00
8.804523424878837878e-02 -1.520476458183257940e+00
8.885298869143780365e-02 -1.521037133146658116e+00
8.966074313408724239e-02 -1.529686387807697168e+00
9.046849757673668113e-02 -1.542643658601578149e+00
9.127625201938610600e-02 -1.544611080381700363e+00
9.208400646203554474e-02 -1.552590567607698313e+00
9.289176090468498348e-02 -1.554792950146270947e+00
9.369951534733442222e-02 -1.559622447119629607e+00
9.450726978998384709e-02 -1.556340161291668300e+00
9.531502423263328583e-02 -1.567312097323458886e+00
9.612277867528272457e-02 -1.574889134210995634e+00
9.693053311793214943e-02 -1.589814634714704633e+00
9.773828756058158818e-02 -1.597611820215776968e+00
9.854604200323102692e-02 -1.599307497318014359e+00
9.935379644588045178e-02 -1.604944064027000294e+00
1.001615508885298905e-01 -1.603737776860115982e+00
1.009693053311793293e-01 -1.619838471484299047e+00
1.017770597738287680e-01 -1.626000083350444880e+00
1.025848142164781929e-01 -1.638113087793328981e+00
1.033925686591276316e-01 -1.646846983492618266e+00
1.042003231017770704e-01 -1.664177897858804434e+00
1.050080775444264952e-01 -1.670609785652900969e+00
1.058158319870759340e-01 -1.672924879737272885e+00
1.066235864297253727e-01 -1.672318825534889530e+00
1.074313408723748114e-01 -1.681274288947507189e+00
1.082390953150242363e-01 -1.681745142806357229e+00
1.090468497576736751e-01 -1.679857175146685311e+00
1.098546042003231138e-01 -1.682416739479717593e+00
1.106623586429725387e-01 -1.683813215567539601e+00
1.114701130856219774e-01 -1.685638979086525158e+00
1.122778675282714161e-01 -1.685006517023893480e+00
1.130856219709208410e-01 -1.691684222176800478e+00
1.138933764135702797e-01 -1.686222068554742215e+00
1.147011308562197185e-01 -1.677806950988205648e+00
1.155088852988691572e-01 -1.681244917422129115e+00
1.163166397415185821e-01 -1.677022006201409177e+00
1.171243941841680208e-01 -1.682757878647271887e+00
1.179321486268174596e-01 -1.687508516991227392e+00
1.187399030694668844e-01 -1.699557103161849714e+00
1.195476575121163232e-01 -1.711343558799960807e+00
1.203554119547657619e-01 -1.731901320453847370e+00
1.211631663974151868e-01 -1.740568246420423737e+00
1.219709208400646255e-01 -1.755991719163470854e+00
1.227786752827140643e-01 -1.767466774521998074e+00
1.235864297253635030e-01 -1.778499266747089136e+00
1.243941841680129279e-01 -1.787110703153363289e+00
1.252019386106623666e-01 -1.795632170689473117e+00
1.260096930533118054e-01 -1.807392426796584184e+00
1.268174474959612441e-01 -1.815970765243631657e+00
1.276252019386106829e-01 -1.828177087433625614e+00
1.284329563812600938e-01 -1.836902755614952643e+00
1.292407108239095326e-01 -1.848041677393461368e+00
1.300484652665589713e-01 -1.848897969441160472e+00
1.308562197092084101e-01 -1.857408496768770956e+00
1.316639741518578488e-01 -1.880568812959796166e+00
1.324717285945072875e-01 -1.884177350787263450e+00
1.332794830371567263e-01 -1.899842703599934790e+00
1.340872374798061373e-01 -1.906334058467954229e+00
1.348949919224555760e-01 -1.920710782731415600e+00
1.357027463651050148e-01 -1.931518240870633951e+00
1.365105008077544535e-01 -1.940708501175365530e+00
1.373182552504038922e-01 -1.941755738945347476e+00
1.381260096930533310e-01 -1.952964172621955985e+00
1.389337641357027420e-01 -1.963051240837019096e+00
1.397415185783521807e-01 -1.975889081144401427e+00
1.405492730210016195e-01 -1.988942386725511380e+00
1.413570274636510582e-01 -1.992367283817177537e+00
1.421647819063004969e-01 -2.004323158707038921e+00
1.429725363489499357e-01 -2.002921388692499693e+00
1.437802907915993744e-01 -2.003312906576113939e+00
1.445880452342487854e-01 -1.991770170404386420e+00
1.453957996768982242e-01 -1.994762476759153857e+00
1.462035541195476629e-01 -2.003219981782237813e+00
1.470113085621971016e-01 -2.021085511766840703e+00
1.478190630048465404e-01 -2.028309380546754248e+00
1.486268174474959791e-01 -2.040815632784271028e+00
1.494345718901454179e-01 -2.058791331116964329e+00
1.502423263327948288e-01 -2.079662718826535084e+00
1.510500807754442676e-01 -2.083073667176749577e+00
1.518578352180937063e-01 -2.095932139826134577e+00
1.526655896607431451e-01 -2.102775118331132731e+00
1.534733441033925838e-01 -2.113120675890149069e+00
1.542810985460420226e-01 -2.118368519240717340e+00
1.550888529886914613e-01 -2.128040511994181649e+00
1.558966074313408723e-01 -2.130192343809696354e+00
1.567043618739903110e-01 -2.139129981482386533e+00
1.575121163166397498e-01 -2.140936882925569495e+00
1.583198707592891885e-01 -2.140768929777459917e+00
1.591276252019386273e-01 -2.130877583106978168e+00
1.599353796445880660e-01 -2.121767535568315211e+00
1.607431340872374770e-01 -2.109498757992167128e+00
1.615508885298869157e-01 -2.107260471521124057e+00
1.623586429725363545e-01 -2.106325788985576875e+00
1.631663974151857932e-01 -2.096799332727253162e+00
1.639741518578352319e-01 -2.083814474410514261e+00
1.647819063004846707e-01 -2.080239160481074379e+00
1.655896607431341094e-01 -2.069479329914059029e+00
1.663974151857835204e-01 -2.058869443692467271e+00
1.672051696284329592e-01 -2.047414429769939037e+00
1.680129240710823979e-01 -2.034910667832986242e+00
1.688206785137318366e-01 -2.030494547774653658e+00
1.696284329563812754e-01 -2.018368422707824017e+00
1.704361873990307141e-01 -2.019505661069997071e+00
1.712439418416801529e-01 -2.016311398802761889e+00
1.720516962843295639e-01 -2.007864049721231225e+00
1.728594507269790026e-01 -2.000126270657924366e+00
1.736672051696284413e-01 -1.984832437021371021e+00
1.744749596122778801e-01 -1.981894947959519815e+00
1.752827140549273188e-01 -1.974912609454557266e+00
1.760904684975767576e-01 -1.970619578021362894e+00
1.768982229402261686e-01 -1.955041514582928741e+00
1.777059773828756073e-01 -1.946677810728875579e+00
1.785137318255250460e-01 -1.941472293749270772e+00
1.793214862681744848e-01 -1.929680508093377433e+00
1.801292407108239235e-01 -1.923017434205270160e+00
1.809369951534733623e-01 -1.911871429005794765e+00
1.817447495961228010e-01 -1.902578346423434930e+00
1.825525040387722120e-01 -1.888880489621691972e+00
1.833602584814216507e-01 -1.878211251496376244e+00
1.841680129240710895e-01 -1.864323376302855495e+00
1.849757673667205282e-01 -1.862255864838314290e+00
1.857835218093699670e-01 -1.863380034186509437e+00
1.865912762520194057e-01 -1.860164673813543113e+00
1.873990306946688444e-01 -1.847513260990040873e+00
1.882067851373182554e-01 -1.835768401612015710e+00
1.890145395799676942e-01 -1.825036300082417018e+00
1.898222940226171329e-01 -1.813860713393279367e+00
1.906300484652665717e-01 -1.801004885397431865e+00
1.914378029079160104e-01 -1.796215959721102928e+00
1.922455573505654491e-01 -1.781520506477801247e+00
1.930533117932148879e-01 -1.770933698861757666e+00
1.938610662358642989e-01 -1.757317358943565333e+00
1.946688206785137376e-01 -1.744829249615773126e+00
1.954765751211631764e-01 -1.731724945829301143e+00
1.962843295638126151e-01 -1.727573363540574336e+00
1.970920840064620538e-01 -1.718236182098439535e+00
1.978998384491114926e-01 -1.717369756829096206e+00
1.987075928917609036e-01 -1.719373366006780923e+00
1.995153473344103423e-01 -1.720484952529582889e+00
2.003231017770597810e-01 -1.722843137727215312e+00
2.011308562197092198e-01 -1.722370276385779775e+00
2.019386106623586585e-01 -1.715085940086946259e+00
2.027463651050080973e-01 -1.713059080020177705e+00
2.035541195476575360e-01 -1.715942475680748869e+00
2.043618739903069470e-01 -1.722089401947458187e+00
2.051696284329563857e-01 -1.721512150404352237e+00
2.059773828756058245e-01 -1.725585433458081130e+00
2.067851373182552632e-01 -1.730829631708860950e+00
2.075928917609047020e-01 -1.735855690633810955e+00
2.084006462035541407e-01 -1.739405925323358248e+00
2.092084006462035795e-01 -1.747842422319924927e+00
2.100161550888529904e-01 -1.758519108729362124e+00
2.108239095315024292e-01 -1.765724040004725603e+00
2.116316639741518679e-01 -1.768536132873334221e+00
2.124394184168013067e-01 -1.767014743680520805e+00
2.132471728594507454e-01 -1.771908073660027227e+00
2.140549273021001841e-01 -1.778679853748457385e+00
2.148626817447496229e-01 -1.782904307732092075e+00
2.156704361873990339e-01 -1.788644860253113977e+00
2.164781906300484726e-01 -1.787984408716134288e+00
2.172859450726979114e-01 -1.801357285393239582e+00
2.180936995153473501e-01 -1.805256307784407266e+00
2.189014539579967888e-01 -1.810170992758274311e+00
2.197092084006462276e-01 -1.820969266352024274e+00
2.205169628432956386e-01 -1.828033592061848678e+00
2.213247172859450773e-01 -1.837498834427885974e+00
2.221324717285945161e-01 -1.848367511217930970e+00
2.229402261712439548e-01 -1.858830721915858186e+00
2.237479806138933935e-01 -1.871431680864060310e+00
2.245557350565428323e-01 -1.883143162917278568e+00
2.253634894991922710e-01 -1.886073694811051027e+00
2.261712439418416820e-01 -1.889497047416350384e+00
2.269789983844911208e-01 -1.890796775699080445e+00
2.277867528271405595e-01 -1.904261063933682774e+00
2.285945072697899982e-01 -1.904881640866060266e+00
2.294022617124394370e-01 -1.914994608289289468e+00
2.302100161550888757e-01 -1.921202589693911778e+00
2.310177705977383145e-01 -1.925580878340362290e+00
2.318255250403877255e-01 -1.936458363684879114e+00
2.326332794830371642e-01 -1.946969235478297033e+00
2.334410339256866029e-01 -1.955552306521416872e+00
2.342487883683360417e-01 -1.970580016373007393e+00
2.350565428109854804e-01 -1.983964008666154744e+00
2.358642972536349192e-01 -2.004808276925311716e+00
2.366720516962843579e-01 -2.019281332254660999e+00
2.374798061389337689e-01 -2.044108404119433953e+00
2.382875605815832076e-01 -2.060381090813546923e+00
2.390953150242326464e-01 -2.074576236671352714e+00
2.399030694668820851e-01 -2.088309707536775139e+00
2.407108239095315239e-01 -2.107384593552839025e+00
2.415185783521809626e-01 -2.117877284325179854e+00
2.423263327948303736e-01 -2.136632736809615629e+00
2.431340872374798123e-01 -2.148513870552926974e+00
2.439418416801292511e-01 -2.158428099882248485e+00
2.447495961227786898e-01 -2.174618859516253888e+00
2.455573505654281286e-01 -2.184821375262051557e+00
2.463651050080775673e-01 -2.202649529439972831e+00
2.471728594507270060e-01 -2.223921118383743512e+00
2.479806138933764170e-01 -2.248485584091801215e+00
2.487883683360258558e-01 -2.275247901798943317e+00
2.495961227786752945e-01 -2.287694968646854399e+00
2.504038772213247332e-01 -2.297354995518707810e+00
2.512116316639741442e-01 -2.316581381740787204e+00
2.520193861066236107e-01 -2.333693987280272886e+00
2.528271405492730217e-01 -2.357495911424041246e+00
2.536348949919224882e-01 -2.380429078572043000e+00
2.544426494345718992e-01 -2.398743150000278934e+00
2.552504038772213657e-01 -2.412399533301690102e+00
2.560581583198707767e-01 -2.443259403671913965e+00
2.568659127625201877e-01 -2.465904471241856299e+00
2.576736672051696542e-01 -2.492550843037329766e+00
2.584814216478190652e-01 -2.519838446490374029e+00
2.592891760904685317e-01 -2.548739389259806476e+00
2.600969305331179426e-01 -2.571889482761511303e+00
2.609046849757674091e-01 -2.593002772619492635e+00
2.617124394184168201e-01 -2.616095597927666550e+00
2.625201938610662311e-01 -2.635986514595788588e+00
2.633279483037156976e-01 -2.656468811196850854e+00
2.641357027463651086e-01 -2.682540243771513122e+00
2.649434571890145751e-01 -2.707254899155296712e+00
2.657512116316639861e-01 -2.729716898314269002e+00
2.665589660743134526e-01 -2.749941135854483409e+00
2.673667205169628636e-01 -2.768274523108767315e+00
2.681744749596122745e-01 -2.781908564021905228e+00
2.689822294022617410e-01 -2.796912046766468762e+00
2.697899838449111520e-01 -2.815616529710788463e+00
2.705977382875606185e-01 -2.833045263993149376e+00
2.714054927302100295e-01 -2.852570602566631308e+00
2.722132471728594405e-01 -2.874469185135084981e+00
2.730210016155089070e-01 -2.893108596538476185e+00
2.738287560581583180e-01 -2.910943141836264569e+00
2.746365105008077845e-01 -2.916174648351494092e+00
2.754442649434571955e-01 -2.927087152039074436e+00
2.762520193861066620e-01 -2.928130696173754544e+00
2.770597738287560730e-01 -2.921901965616343411e+00
2.778675282714054839e-01 -2.911570151319617494e+00
2.786752827140549504e-01 -2.908268279331636119e+00
2.794830371567043614e-01 -2.900023213743158301e+00
2.802907915993538279e-01 -2.893315073356517164e+00
2.810985460420032389e-01 -2.881075785361071340e+00
2.819063004846527054e-01 -2.876618562418983061e+00
2.827140549273021164e-01 -2.871684194749046792e+00
2.835218093699515274e-01 -2.865115060428832905e+00
2.843295638126009939e-01 -2.862660688069698089e+00
2.851373182552504049e-01 -2.852211417935423654e+00
2.859450726978998714e-01 -2.844428253063281176e+00
2.867528271405492823e-01 -2.835308205887245414e+00
2.875605815831987488e-01 -2.821782349609084140e+00
2.883683360258481598e-01 -2.807683101859868469e+00
2.891760904684975708e-01 -2.783337387543980412e+00
2.899838449111470373e-01 -2.771425271702478543e+00
2.907915993537964483e-01 -2.764322710531331495e+00
2.915993537964459148e-01 -2.745242639060683665e+00
2.924071082390953258e-01 -2.733571607189061226e+00
2.932148626817447923e-01 -2.718052293226689287e+00
2.940226171243942033e-01 -2.708158457960839538e+00
2.948303715670436143e-01 -2.702057422161050493e+00
2.956381260096930808e-01 -2.697340432170603819e+00
2.964458804523424917e-01 -2.676746493737970578e+00
2.972536348949919582e-01 -2.665816250193842052e+00
2.980613893376413692e-01 -2.649213409330900770e+00
2.988691437802908357e-01 -2.643010799067085692e+00
2.996768982229402467e-01 -2.630162488297102197e+00
3.004846526655896577e-01 -2.617495491558983645e+00
3.012924071082391242e-01 -2.614411660167029972e+00
3.021001615508885352e-01 -2.607718101255001475e+00
3.029079159935380017e-01 -2.596037824892152290e+00
3.037156704361874127e-01 -2.593772930451226255e+00
3.045234248788368792e-01 -2.584167294906798418e+00
3.053311793214862901e-01 -2.576360759719444005e+00
3.061389337641357011e-01 -2.569510693673363821e+00
3.069466882067851676e-01 -2.562120330223992770e+00
3.077544426494345786e-01 -2.561013136463441420e+00
3.085621970920840451e-01 -2.550633765329950009e+00
3.093699515347334561e-01 -2.549867193508112084e+00
3.101777059773829226e-01 -2.538515938217287715e+00
3.109854604200323336e-01 -2.535310302410159977e+00
3.117932148626817446e-01 -2.528410290638527957e+00
3.126009693053312111e-01 -2.522867246901814298e+00
3.134087237479806221e-01 -2.509948543027686885e+00
3.142164781906300886e-01 -2.497401348371279362e+00
