# pope % Change in inner leaflet for pp flat
#  1st Col = Time (us)	 2nd Col = % Change
0.000000000000000000e+00 -7.170087827957437321e-02
8.077544426494346220e-04 -7.124354708519947676e-02
1.615508885298869244e-03 -6.710248171681759688e-02
2.423263327948304083e-03 -6.266710182586965328e-02
3.231017770597738488e-03 -5.873490385921387169e-02
4.038772213247172893e-03 -5.058001860912547665e-02
4.846526655896608166e-03 -4.167131986060455817e-02
5.654281098546042571e-03 -3.317979326673897028e-02
6.462035541195476976e-03 -2.336622537980898029e-02
7.269789983844911381e-03 -1.231232524842046198e-02
8.077544426494345786e-03 -5.504314578281818866e-03
8.885298869143781059e-03 1.991833312132542614e-03
9.693053311793216331e-03 1.324409484406263889e-02
1.050080775444264987e-02 2.127853531313017577e-02
1.130856219709208514e-02 3.042751219839007551e-02
1.211631663974151868e-02 3.888605798620997644e-02
1.292407108239095395e-02 4.795463177297393242e-02
1.373182552504038922e-02 5.631303448784631682e-02
1.453957996768982276e-02 6.848192992261932510e-02
1.534733441033925803e-02 7.629378306932993459e-02
1.615508885298869157e-02 8.221970862688676718e-02
1.696284329563812684e-02 8.825039120423146255e-02
1.777059773828756212e-02 9.045898559046006149e-02
1.857835218093699739e-02 9.571434703019893186e-02
1.938610662358643266e-02 1.051723456619053643e-01
2.019386106623586447e-02 1.139737158099514702e-01
2.100161550888529974e-02 1.206703837614322011e-01
2.180936995153473501e-02 1.257871795059661291e-01
2.261712439418417028e-02 1.347309792112646731e-01
2.342487883683360556e-02 1.398534720957141653e-01
2.423263327948303736e-02 1.464558125953841494e-01
2.504038772213247263e-02 1.554046483423907610e-01
2.584814216478190790e-02 1.628558454555628088e-01
2.665589660743134318e-02 1.692796974283542200e-01
2.746365105008077845e-02 1.727129737969615997e-01
2.827140549273021025e-02 1.763339580994815470e-01
2.907915993537964552e-02 1.749681264163681083e-01
2.988691437802908080e-02 1.738271450167620802e-01
3.069466882067851607e-02 1.796392116384449011e-01
3.150242326332795134e-02 1.818569165552232914e-01
3.231017770597738314e-02 1.815862152102282745e-01
3.311793214862682189e-02 1.809223880039523835e-01
3.392568659127625369e-02 1.831221632515263875e-01
3.473344103392568549e-02 1.831853420380312458e-01
3.554119547657512423e-02 1.803809352511547837e-01
3.634894991922455604e-02 1.779825581400668044e-01
3.715670436187399478e-02 1.768158955385850106e-01
3.796445880452342658e-02 1.715505083168153977e-01
3.877221324717286532e-02 1.672920288088514118e-01
3.957996768982229713e-02 1.652216980193181028e-01
4.038772213247172893e-02 1.677265508203883426e-01
4.119547657512116767e-02 1.706617476901209907e-01
4.200323101777059948e-02 1.719091215437005549e-01
4.281098546042003822e-02 1.716956969182313886e-01
4.361873990306947002e-02 1.730272574445302358e-01
4.442649434571890182e-02 1.766617425486007864e-01
4.523424878836834057e-02 1.789927122727708042e-01
4.604200323101777237e-02 1.794418693052958758e-01
4.684975767366721111e-02 1.748256612162263912e-01
4.765751211631664291e-02 1.746724527434386776e-01
4.846526655896607472e-02 1.723639011657292774e-01
4.927302100161551346e-02 1.706117193597231629e-01
5.008077544426494526e-02 1.634343920037196196e-01
5.088852988691438400e-02 1.610208584623246675e-01
5.169628432956381581e-02 1.577339876970828836e-01
5.250403877221324761e-02 1.584149040613325732e-01
5.331179321486268635e-02 1.578944028592216275e-01
5.411954765751211816e-02 1.569268385531589205e-01
5.492730210016155690e-02 1.515032578844498767e-01
5.573505654281098870e-02 1.506785994150577346e-01
5.654281098546042050e-02 1.499250223918248137e-01
5.735056542810985925e-02 1.499392103080960381e-01
5.815831987075929105e-02 1.480614146346165838e-01
5.896607431340872979e-02 1.480282776471861794e-01
5.977382875605816159e-02 1.440093209339615987e-01
6.058158319870759340e-02 1.352639122712590014e-01
6.138933764135703214e-02 1.324881848969942655e-01
6.219709208400646394e-02 1.316824595236333328e-01
6.300484652665590268e-02 1.317066698354787957e-01
6.381260096930534143e-02 1.337425976931712890e-01
6.462035541195476629e-02 1.328037941784242504e-01
6.542810985460420503e-02 1.332084698748542129e-01
6.623586429725364377e-02 1.364164734473098384e-01
6.704361873990306864e-02 1.358410194481241562e-01
6.785137318255250738e-02 1.369096700022920943e-01
6.865912762520194612e-02 1.372453177118114209e-01
6.946688206785137099e-02 1.420442396004166219e-01
7.027463651050080973e-02 1.442806049052796080e-01
7.108239095315024847e-02 1.415410776612383015e-01
7.189014539579968721e-02 1.450710214067578441e-01
7.269789983844911208e-02 1.482079855685714265e-01
7.350565428109855082e-02 1.513308586449662041e-01
7.431340872374798956e-02 1.575154453696855639e-01
7.512116316639741442e-02 1.607263442161466216e-01
7.592891760904685317e-02 1.645435277685073361e-01
7.673667205169629191e-02 1.683778884986772972e-01
7.754442649434573065e-02 1.677948387380880368e-01
7.835218093699515551e-02 1.726396765497256736e-01
7.915993537964459426e-02 1.730934609489043485e-01
7.996768982229403300e-02 1.701943800152133368e-01
8.077544426494345786e-02 1.690791585902365335e-01
8.158319870759289660e-02 1.681282598849819787e-01
8.239095315024233535e-02 1.679802361289296497e-01
8.319870759289176021e-02 1.708914115824740620e-01
8.400646203554119895e-02 1.727703045276507976e-01
8.481421647819063769e-02 1.687881476886020082e-01
8.562197092084007644e-02 1.665291862137086576e-01
8.642972536348950130e-02 1.664993747943331326e-01
8.723747980613894004e-02 1.680415784455396855e-01
8.804523424878837878e-02 1.634991192324563580e-01
8.885298869143780365e-02 1.645478522924202214e-01
8.966074313408724239e-02 1.643083019297718050e-01
9.046849757673668113e-02 1.678764831354726816e-01
9.127625201938610600e-02 1.729662130297200395e-01
9.208400646203554474e-02 1.766279146062474659e-01
9.289176090468498348e-02 1.792006709872399628e-01
9.369951534733442222e-02 1.802883304898442729e-01
9.450726978998384709e-02 1.775951398396016789e-01
9.531502423263328583e-02 1.823136068165683021e-01
9.612277867528272457e-02 1.819059411189159758e-01
9.693053311793214943e-02 1.793410120998891744e-01
9.773828756058158818e-02 1.777318493209030792e-01
9.854604200323102692e-02 1.761573442656577948e-01
9.935379644588045178e-02 1.735373309135546660e-01
1.001615508885298905e-01 1.692527828367379472e-01
1.009693053311793293e-01 1.712304163148203884e-01
1.017770597738287680e-01 1.737015113977267156e-01
1.025848142164781929e-01 1.731561113706471255e-01
1.033925686591276316e-01 1.699899506075544797e-01
1.042003231017770704e-01 1.680268960785895049e-01
1.050080775444264952e-01 1.693542293509967267e-01
1.058158319870759340e-01 1.674708104749788318e-01
1.066235864297253727e-01 1.660522250756164553e-01
1.074313408723748114e-01 1.679927133392869198e-01
1.082390953150242363e-01 1.684263564044989614e-01
1.090468497576736751e-01 1.714457962339873687e-01
1.098546042003231138e-01 1.710585799269658536e-01
1.106623586429725387e-01 1.751559005593381069e-01
1.114701130856219774e-01 1.782077747758895048e-01
1.122778675282714161e-01 1.795113841825398682e-01
1.130856219709208410e-01 1.782783817817730765e-01
1.138933764135702797e-01 1.762435369866318657e-01
1.147011308562197185e-01 1.719567308537472972e-01
1.155088852988691572e-01 1.674842002568812660e-01
1.163166397415185821e-01 1.682190286913008703e-01
1.171243941841680208e-01 1.676139859192040671e-01
1.179321486268174596e-01 1.719329373970136243e-01
1.187399030694668844e-01 1.740752707561774304e-01
1.195476575121163232e-01 1.745996078536348195e-01
1.203554119547657619e-01 1.791702890901179790e-01
1.211631663974151868e-01 1.799990445040959008e-01
1.219709208400646255e-01 1.801419997281137331e-01
1.227786752827140643e-01 1.790293773947570777e-01
1.235864297253635030e-01 1.769984070988285807e-01
1.243941841680129279e-01 1.759588634644572991e-01
1.252019386106623666e-01 1.776162103084908683e-01
1.260096930533118054e-01 1.784349498901252606e-01
1.268174474959612441e-01 1.822921512364484853e-01
1.276252019386106829e-01 1.853642863975538957e-01
1.284329563812600938e-01 1.900058933034049491e-01
1.292407108239095326e-01 1.922523700160913285e-01
1.300484652665589713e-01 2.012439861242805439e-01
1.308562197092084101e-01 2.053525725748995279e-01
1.316639741518578488e-01 2.067235102285336079e-01
1.324717285945072875e-01 2.082061506681325835e-01
1.332794830371567263e-01 2.058144096119760291e-01
1.340872374798061373e-01 2.050730036289596381e-01
1.348949919224555760e-01 2.070700406503368785e-01
1.357027463651050148e-01 2.066568765360559945e-01
1.365105008077544535e-01 2.058673979014009614e-01
1.373182552504038922e-01 2.097646511326801133e-01
1.381260096930533310e-01 2.118677529297064710e-01
1.389337641357027420e-01 2.152964221225081576e-01
1.397415185783521807e-01 2.208670569742010037e-01
1.405492730210016195e-01 2.322222254979791345e-01
1.413570274636510582e-01 2.420281424588898722e-01
1.421647819063004969e-01 2.500910857096410589e-01
1.429725363489499357e-01 2.577725308264689486e-01
1.437802907915993744e-01 2.635007102960095771e-01
1.445880452342487854e-01 2.704486241371538702e-01
1.453957996768982242e-01 2.745927717938737578e-01
1.462035541195476629e-01 2.809517057512393445e-01
1.470113085621971016e-01 2.858341661128876443e-01
1.478190630048465404e-01 2.914963803422300215e-01
1.486268174474959791e-01 2.966677826833593601e-01
1.494345718901454179e-01 3.041256255090641902e-01
1.502423263327948288e-01 3.068409666331389785e-01
1.510500807754442676e-01 3.105688549404658771e-01
1.518578352180937063e-01 3.185469667040322639e-01
1.526655896607431451e-01 3.256828805640359925e-01
1.534733441033925838e-01 3.311085079479789695e-01
1.542810985460420226e-01 3.392646826807464433e-01
1.550888529886914613e-01 3.477297327021786066e-01
1.558966074313408723e-01 3.594513036347247170e-01
1.567043618739903110e-01 3.693564544498834645e-01
1.575121163166397498e-01 3.798502860603654718e-01
1.583198707592891885e-01 3.867889917013499490e-01
1.591276252019386273e-01 3.910061596470741363e-01
1.599353796445880660e-01 3.977849002742126494e-01
1.607431340872374770e-01 4.039328088658643012e-01
1.615508885298869157e-01 4.122434352344598318e-01
1.623586429725363545e-01 4.191172847214980623e-01
1.631663974151857932e-01 4.259328210426989725e-01
1.639741518578352319e-01 4.305842147329703162e-01
1.647819063004846707e-01 4.342115771568252347e-01
1.655896607431341094e-01 4.385214969932459961e-01
1.663974151857835204e-01 4.395932786192830455e-01
1.672051696284329592e-01 4.343181069398227567e-01
1.680129240710823979e-01 4.343433562289623628e-01
1.688206785137318366e-01 4.356902640140367100e-01
1.696284329563812754e-01 4.370673310429492031e-01
1.704361873990307141e-01 4.346378440463814496e-01
1.712439418416801529e-01 4.326288000889916829e-01
1.720516962843295639e-01 4.335316407389253057e-01
1.728594507269790026e-01 4.315861396987404341e-01
1.736672051696284413e-01 4.353350894952203176e-01
1.744749596122778801e-01 4.374071907719276897e-01
1.752827140549273188e-01 4.402082268318558977e-01
1.760904684975767576e-01 4.428756312607983747e-01
1.768982229402261686e-01 4.449177199367090885e-01
1.777059773828756073e-01 4.445371396035217026e-01
1.785137318255250460e-01 4.434199276027323000e-01
1.793214862681744848e-01 4.447323183096967836e-01
1.801292407108239235e-01 4.454033432014002925e-01
1.809369951534733623e-01 4.402921475946324770e-01
1.817447495961228010e-01 4.306401584280099004e-01
1.825525040387722120e-01 4.238380416057222488e-01
1.833602584814216507e-01 4.208554290235170803e-01
1.841680129240710895e-01 4.215834104779286884e-01
1.849757673667205282e-01 4.214074620577965002e-01
1.857835218093699670e-01 4.244403481265871525e-01
1.865912762520194057e-01 4.271156307179647671e-01
1.873990306946688444e-01 4.271403577380462613e-01
1.882067851373182554e-01 4.238820489728323815e-01
1.890145395799676942e-01 4.214098068742054282e-01
1.898222940226171329e-01 4.197244412428257632e-01
1.906300484652665717e-01 4.223484461898903142e-01
1.914378029079160104e-01 4.219859032542133126e-01
1.922455573505654491e-01 4.173391349767769931e-01
1.930533117932148879e-01 4.152973328036401179e-01
1.938610662358642989e-01 4.178613393861021486e-01
1.946688206785137376e-01 4.166857404028138645e-01
1.954765751211631764e-01 4.145749987756601196e-01
1.962843295638126151e-01 4.113712331655082766e-01
1.970920840064620538e-01 4.076756938197266256e-01
1.978998384491114926e-01 4.043523789665563473e-01
1.987075928917609036e-01 4.045112042774489658e-01
1.995153473344103423e-01 4.083236341465318331e-01
2.003231017770597810e-01 4.096539678923846739e-01
2.011308562197092198e-01 4.083091436689628706e-01
2.019386106623586585e-01 4.068029821726579787e-01
2.027463651050080973e-01 4.085566018628350449e-01
2.035541195476575360e-01 4.074460535321487997e-01
2.043618739903069470e-01 4.108710613409717882e-01
2.051696284329563857e-01 4.116384112156908359e-01
2.059773828756058245e-01 4.114613832222691614e-01
2.067851373182552632e-01 4.131903765732736766e-01
2.075928917609047020e-01 4.141093715651795182e-01
2.084006462035541407e-01 4.117618675530992367e-01
2.092084006462035795e-01 4.095915352689881717e-01
2.100161550888529904e-01 4.101282540596330461e-01
2.108239095315024292e-01 4.090720641594521312e-01
2.116316639741518679e-01 4.092386728471107959e-01
2.124394184168013067e-01 4.067800661386967720e-01
2.132471728594507454e-01 4.088208244362380173e-01
2.140549273021001841e-01 4.070105238279024262e-01
2.148626817447496229e-01 4.063792902407510899e-01
2.156704361873990339e-01 4.086054539850151324e-01
2.164781906300484726e-01 4.078060880042328473e-01
2.172859450726979114e-01 4.077355611658281531e-01
2.180936995153473501e-01 4.099776340076231596e-01
2.189014539579967888e-01 4.147791252505074744e-01
2.197092084006462276e-01 4.194378661604055702e-01
2.205169628432956386e-01 4.217577433232829742e-01
2.213247172859450773e-01 4.248744740457993108e-01
2.221324717285945161e-01 4.290440344431032949e-01
2.229402261712439548e-01 4.313650302991209884e-01
2.237479806138933935e-01 4.291092636410144823e-01
2.245557350565428323e-01 4.292471388030000279e-01
2.253634894991922710e-01 4.247473644762875811e-01
2.261712439418416820e-01 4.211153633359477899e-01
2.269789983844911208e-01 4.206890797993149689e-01
2.277867528271405595e-01 4.191593200904131233e-01
2.285945072697899982e-01 4.157379930571602489e-01
2.294022617124394370e-01 4.149728281330615220e-01
2.302100161550888757e-01 4.093558498017932923e-01
2.310177705977383145e-01 4.050863119723843719e-01
2.318255250403877255e-01 4.054906204753843113e-01
2.326332794830371642e-01 4.032401782385244826e-01
2.334410339256866029e-01 4.022078761313997997e-01
2.342487883683360417e-01 3.982870950389361120e-01
2.350565428109854804e-01 3.936326698512006561e-01
2.358642972536349192e-01 3.873829013545415090e-01
2.366720516962843579e-01 3.833036684232755675e-01
2.374798061389337689e-01 3.793689670036659023e-01
2.382875605815832076e-01 3.764901379300805151e-01
2.390953150242326464e-01 3.706440568711645844e-01
2.399030694668820851e-01 3.630123198154161512e-01
2.407108239095315239e-01 3.580337840719127751e-01
2.415185783521809626e-01 3.536103377022831173e-01
2.423263327948303736e-01 3.467605638080041852e-01
2.431340872374798123e-01 3.425519545135495281e-01
2.439418416801292511e-01 3.407924770060041242e-01
2.447495961227786898e-01 3.363906338091613990e-01
2.455573505654281286e-01 3.319673311296649221e-01
2.463651050080775673e-01 3.280926479404907559e-01
2.471728594507270060e-01 3.265107449643133708e-01
2.479806138933764170e-01 3.215782221576307665e-01
2.487883683360258558e-01 3.210771206323647098e-01
2.495961227786752945e-01 3.232696128480466724e-01
2.504038772213247332e-01 3.225087872837614222e-01
2.512116316639741442e-01 3.185091932370504586e-01
2.520193861066236107e-01 3.171226153054149122e-01
2.528271405492730217e-01 3.159490561246031115e-01
2.536348949919224882e-01 3.092312849308081479e-01
2.544426494345718992e-01 3.055307512441321482e-01
2.552504038772213657e-01 3.004696505312051680e-01
2.560581583198707767e-01 2.921004815307677860e-01
2.568659127625201877e-01 2.867788682273003098e-01
2.576736672051696542e-01 2.822626049747616328e-01
2.584814216478190652e-01 2.747453330849278230e-01
2.592891760904685317e-01 2.652967441223302858e-01
2.600969305331179426e-01 2.586011757999905902e-01
2.609046849757674091e-01 2.514519230322120324e-01
2.617124394184168201e-01 2.468471533819786290e-01
2.625201938610662311e-01 2.434863195978338724e-01
2.633279483037156976e-01 2.419973728670439805e-01
2.641357027463651086e-01 2.410889271348527207e-01
2.649434571890145751e-01 2.372163665590123760e-01
2.657512116316639861e-01 2.375393441270044204e-01
2.665589660743134526e-01 2.347239389536427412e-01
2.673667205169628636e-01 2.281015185022712832e-01
2.681744749596122745e-01 2.244367753368594620e-01
2.689822294022617410e-01 2.230933803998650655e-01
2.697899838449111520e-01 2.145307849056104776e-01
2.705977382875606185e-01 2.030136614807046824e-01
2.714054927302100295e-01 1.957780492113602999e-01
2.722132471728594405e-01 1.830789982377276082e-01
2.730210016155089070e-01 1.748232044452945888e-01
2.738287560581583180e-01 1.639431061344883700e-01
2.746365105008077845e-01 1.578126669823863293e-01
2.754442649434571955e-01 1.540976076902554615e-01
2.762520193861066620e-01 1.504904124446413416e-01
2.770597738287560730e-01 1.452276067712137686e-01
2.778675282714054839e-01 1.397060900541199913e-01
2.786752827140549504e-01 1.364283975788988523e-01
2.794830371567043614e-01 1.334500586242927667e-01
2.802907915993538279e-01 1.324125848187821530e-01
2.810985460420032389e-01 1.313643060146453267e-01
2.819063004846527054e-01 1.290817707724480345e-01
2.827140549273021164e-01 1.293555180945117344e-01
2.835218093699515274e-01 1.284707521672458497e-01
2.843295638126009939e-01 1.248340178134156875e-01
2.851373182552504049e-01 1.213933410722097261e-01
2.859450726978998714e-01 1.208872326536687969e-01
2.867528271405492823e-01 1.198632262434090601e-01
2.875605815831987488e-01 1.199000326011991913e-01
2.883683360258481598e-01 1.236577817771946086e-01
2.891760904684975708e-01 1.233277944843004237e-01
2.899838449111470373e-01 1.195056574340430944e-01
2.907915993537964483e-01 1.145781474356420970e-01
2.915993537964459148e-01 1.109987878746234169e-01
2.924071082390953258e-01 1.054201455054610825e-01
2.932148626817447923e-01 1.035197798915677425e-01
2.940226171243942033e-01 1.050925421798421106e-01
2.948303715670436143e-01 1.042531748790039986e-01
2.956381260096930808e-01 1.059217951519162010e-01
2.964458804523424917e-01 1.080232550674056075e-01
2.972536348949919582e-01 1.092996570524648048e-01
2.980613893376413692e-01 1.102744568140952841e-01
2.988691437802908357e-01 1.122647793324917376e-01
2.996768982229402467e-01 1.139787274056673350e-01
3.004846526655896577e-01 1.168094866263046511e-01
3.012924071082391242e-01 1.193733710702251094e-01
3.021001615508885352e-01 1.196561569541478992e-01
3.029079159935380017e-01 1.185043702602273236e-01
3.037156704361874127e-01 1.188693007064240970e-01
3.045234248788368792e-01 1.231319206800943755e-01
3.053311793214862901e-01 1.253472323398158728e-01
3.061389337641357011e-01 1.255392234691516673e-01
3.069466882067851676e-01 1.246700941303790500e-01
3.077544426494345786e-01 1.291985558587181449e-01
3.085621970920840451e-01 1.325050353019462945e-01
3.093699515347334561e-01 1.382777614148938961e-01
3.101777059773829226e-01 1.459936885928616590e-01
3.109854604200323336e-01 1.605589834131679328e-01
3.117932148626817446e-01 1.705865204184522643e-01
3.126009693053312111e-01 1.827943668012641243e-01
3.134087237479806221e-01 1.953779173279382997e-01
3.142164781906300886e-01 2.082189901596130932e-01
3.150242326332794995e-01 2.178412404708097161e-01
3.158319870759289105e-01 2.256969538512687834e-01
3.166397415185783770e-01 2.339973607354861318e-01
3.174474959612277880e-01 2.369187818362598064e-01
3.182552504038772545e-01 2.436971293647007264e-01
3.190630048465266655e-01 2.488735691850138543e-01
3.198707592891761320e-01 2.533081937098387582e-01
3.206785137318255430e-01 2.566497459892436162e-01
