# cdl2 % Change in outer leaflet for ppc junc
#  1st Col = Time (us)	 2nd Col = % Change
0.000000000000000000e+00 5.535437747000549781e-03
8.077544426494346220e-04 7.246415244916204479e-03
1.615508885298869244e-03 6.529566735998858749e-03
2.423263327948304083e-03 7.455436277629178508e-03
3.231017770597738488e-03 1.282591858009762484e-02
4.038772213247172893e-03 2.484895905362277321e-02
4.846526655896608166e-03 2.921672001565211660e-02
5.654281098546042571e-03 3.216634526699446717e-02
6.462035541195476976e-03 3.647715095596188589e-02
7.269789983844911381e-03 3.967694630696566582e-02
8.077544426494345786e-03 4.702904121041252133e-02
8.885298869143781059e-03 5.451333197870162489e-02
9.693053311793216331e-03 6.478580812693801594e-02
1.050080775444264987e-02 7.570731978929108597e-02
1.130856219709208514e-02 8.075361648717982455e-02
1.211631663974151868e-02 8.892891273989128598e-02
1.292407108239095395e-02 9.182164956783116228e-02
1.373182552504038922e-02 9.592126144147394839e-02
1.453957996768982276e-02 1.023903163447882486e-01
1.534733441033925803e-02 1.144360939922316744e-01
1.615508885298869157e-02 1.220401502866668708e-01
1.696284329563812684e-02 1.263496641333954340e-01
1.777059773828756212e-02 1.278471362041405379e-01
1.857835218093699739e-02 1.341368647890875954e-01
1.938610662358643266e-02 1.412386484069839687e-01
2.019386106623586447e-02 1.463497544646711335e-01
2.100161550888529974e-02 1.544181874665406795e-01
2.180936995153473501e-02 1.640748997352833027e-01
2.261712439418417028e-02 1.749259924380794917e-01
2.342487883683360556e-02 1.851800166542335591e-01
2.423263327948303736e-02 1.964468305477365950e-01
2.504038772213247263e-02 2.041259968991221696e-01
2.584814216478190790e-02 2.106024478803187883e-01
2.665589660743134318e-02 2.235270288334285094e-01
2.746365105008077845e-02 2.356427613709256852e-01
2.827140549273021025e-02 2.422730690693364886e-01
2.907915993537964552e-02 2.502384722434247699e-01
2.988691437802908080e-02 2.630200670671895002e-01
3.069466882067851607e-02 2.707215277252875696e-01
3.150242326332795134e-02 2.857858484565632962e-01
3.231017770597738314e-02 2.923560895053480824e-01
3.311793214862682189e-02 3.047451152926555773e-01
3.392568659127625369e-02 3.182517091376776408e-01
3.473344103392568549e-02 3.334071115893295634e-01
3.554119547657512423e-02 3.475696902512519504e-01
3.634894991922455604e-02 3.640690900793276397e-01
3.715670436187399478e-02 3.743955216924081952e-01
3.796445880452342658e-02 3.836914257258738914e-01
3.877221324717286532e-02 3.946311008199476777e-01
3.957996768982229713e-02 4.085347490144432547e-01
4.038772213247172893e-02 4.208687503669640839e-01
4.119547657512116767e-02 4.295887795828036149e-01
4.200323101777059948e-02 4.428859238261454445e-01
4.281098546042003822e-02 4.527693507829743114e-01
4.361873990306947002e-02 4.607243480277825598e-01
4.442649434571890182e-02 4.661799738217469180e-01
4.523424878836834057e-02 4.715112422657322111e-01
4.604200323101777237e-02 4.815032951376368442e-01
4.684975767366721111e-02 4.906136058177118509e-01
4.765751211631664291e-02 4.973410534950377659e-01
4.846526655896607472e-02 5.001287602335735549e-01
4.927302100161551346e-02 5.073032298868758172e-01
5.008077544426494526e-02 5.069259318187122609e-01
5.088852988691438400e-02 5.024999071351944346e-01
5.169628432956381581e-02 5.048815869265810274e-01
5.250403877221324761e-02 4.993834129073235761e-01
5.331179321486268635e-02 4.998304177836862539e-01
5.411954765751211816e-02 5.000117302399251784e-01
5.492730210016155690e-02 5.011821686268591591e-01
5.573505654281098870e-02 5.046315189685599556e-01
5.654281098546042050e-02 5.026475327421551231e-01
5.735056542810985925e-02 5.113636366747972284e-01
5.815831987075929105e-02 5.177548732518688634e-01
5.896607431340872979e-02 5.230581795003196310e-01
5.977382875605816159e-02 5.281526124581793491e-01
6.058158319870759340e-02 5.290959077241422781e-01
6.138933764135703214e-02 5.292989315504963432e-01
6.219709208400646394e-02 5.352554837837721902e-01
6.300484652665590268e-02 5.363813951054950957e-01
6.381260096930534143e-02 5.433290619641386598e-01
6.462035541195476629e-02 5.484158131595260333e-01
6.542810985460420503e-02 5.567542242792840046e-01
6.623586429725364377e-02 5.637692373019483894e-01
6.704361873990306864e-02 5.684841109312660512e-01
6.785137318255250738e-02 5.727744103674994314e-01
6.865912762520194612e-02 5.758872073296377181e-01
6.946688206785137099e-02 5.825942741280379922e-01
7.027463651050080973e-02 5.850568826754066754e-01
7.108239095315024847e-02 5.881468945735219833e-01
7.189014539579968721e-02 5.924617702490351245e-01
7.269789983844911208e-02 5.976986396601228213e-01
7.350565428109855082e-02 5.977480225572048278e-01
7.431340872374798956e-02 6.025103083163652062e-01
7.512116316639741442e-02 6.081873321598336712e-01
7.592891760904685317e-02 6.131460200931829752e-01
7.673667205169629191e-02 6.177055843480181441e-01
7.754442649434573065e-02 6.171459668896165374e-01
7.835218093699515551e-02 6.202271713682233623e-01
7.915993537964459426e-02 6.272687232242097899e-01
7.996768982229403300e-02 6.295099871994213059e-01
8.077544426494345786e-02 6.282505206646211704e-01
8.158319870759289660e-02 6.341663957515150107e-01
8.239095315024233535e-02 6.384276275312181781e-01
8.319870759289176021e-02 6.432552776073287015e-01
8.400646203554119895e-02 6.515144003693059682e-01
8.481421647819063769e-02 6.552492387139530194e-01
8.562197092084007644e-02 6.613736382551218540e-01
8.642972536348950130e-02 6.641083044113748057e-01
8.723747980613894004e-02 6.689217980689493581e-01
8.804523424878837878e-02 6.776042900672194502e-01
8.885298869143780365e-02 6.865603805096629486e-01
8.966074313408724239e-02 6.943358041193756769e-01
9.046849757673668113e-02 7.041832646731838175e-01
9.127625201938610600e-02 7.169570407624457076e-01
9.208400646203554474e-02 7.274353394179364773e-01
9.289176090468498348e-02 7.407522953506817665e-01
9.369951534733442222e-02 7.566067245807622799e-01
9.450726978998384709e-02 7.669532819674317325e-01
9.531502423263328583e-02 7.810545785492020165e-01
9.612277867528272457e-02 7.860202620929984674e-01
9.693053311793214943e-02 8.022236901797189512e-01
9.773828756058158818e-02 8.119746956483511191e-01
9.854604200323102692e-02 8.246582469244926328e-01
9.935379644588045178e-02 8.384962876278634347e-01
1.001615508885298905e-01 8.530120757325924119e-01
1.009693053311793293e-01 8.616235356514081456e-01
1.017770597738287680e-01 8.768097056248428389e-01
1.025848142164781929e-01 8.853235603450798630e-01
1.033925686591276316e-01 8.911943004955538150e-01
1.042003231017770704e-01 9.040126723013010013e-01
1.050080775444264952e-01 9.076232512958488652e-01
1.058158319870759340e-01 9.074204030020145417e-01
1.066235864297253727e-01 9.116925775324755676e-01
1.074313408723748114e-01 9.162872034191433812e-01
1.082390953150242363e-01 9.202677131341177041e-01
1.090468497576736751e-01 9.295173074646670974e-01
1.098546042003231138e-01 9.334487520907923663e-01
1.106623586429725387e-01 9.332510003532581422e-01
1.114701130856219774e-01 9.401495660413600186e-01
1.122778675282714161e-01 9.461949701586057637e-01
1.130856219709208410e-01 9.510144162775483467e-01
1.138933764135702797e-01 9.578207040369167702e-01
1.147011308562197185e-01 9.624624775991803549e-01
1.155088852988691572e-01 9.659220698615281764e-01
1.163166397415185821e-01 9.674372334356495795e-01
1.171243941841680208e-01 9.664350144201647730e-01
1.179321486268174596e-01 9.739551773357930653e-01
1.187399030694668844e-01 9.745471758310465527e-01
1.195476575121163232e-01 9.697771371963315179e-01
1.203554119547657619e-01 9.723858420308509887e-01
1.211631663974151868e-01 9.753147888402422527e-01
1.219709208400646255e-01 9.765830257309254803e-01
1.227786752827140643e-01 9.807649816682011412e-01
1.235864297253635030e-01 9.822745484767062552e-01
1.243941841680129279e-01 9.847262606293696319e-01
1.252019386106623666e-01 9.916714749726082134e-01
1.260096930533118054e-01 9.962434014714789399e-01
1.268174474959612441e-01 9.966508510015020805e-01
1.276252019386106829e-01 9.996716230554758553e-01
1.284329563812600938e-01 9.982305078731277259e-01
1.292407108239095326e-01 1.000658307033680749e+00
1.300484652665589713e-01 1.002575965961914894e+00
1.308562197092084101e-01 1.005581081972537039e+00
1.316639741518578488e-01 1.006835945385660125e+00
1.324717285945072875e-01 1.010090055209413640e+00
1.332794830371567263e-01 1.011066870733217105e+00
1.340872374798061373e-01 1.012719294317783847e+00
1.348949919224555760e-01 1.017913862721725016e+00
1.357027463651050148e-01 1.018431302247503778e+00
1.365105008077544535e-01 1.020199838273971427e+00
1.373182552504038922e-01 1.013580324963579971e+00
1.381260096930533310e-01 1.017118540969128127e+00
1.389337641357027420e-01 1.012431704298372592e+00
1.397415185783521807e-01 1.008871315666850066e+00
1.405492730210016195e-01 1.003018958103539804e+00
1.413570274636510582e-01 1.006981054504860307e+00
1.421647819063004969e-01 1.003860180209253494e+00
1.429725363489499357e-01 1.002214894597680761e+00
1.437802907915993744e-01 1.005122244661445174e+00
1.445880452342487854e-01 1.000459207146649598e+00
1.453957996768982242e-01 1.003970876310971816e+00
1.462035541195476629e-01 1.002390950824383786e+00
1.470113085621971016e-01 9.979189706442563867e-01
1.478190630048465404e-01 9.971199515072791675e-01
1.486268174474959791e-01 9.967510374600776490e-01
1.494345718901454179e-01 9.950269284347134091e-01
1.502423263327948288e-01 9.916974387858459306e-01
1.510500807754442676e-01 9.942177837510880467e-01
1.518578352180937063e-01 9.916574464363284713e-01
1.526655896607431451e-01 9.899928844236353109e-01
1.534733441033925838e-01 9.910439662195819066e-01
1.542810985460420226e-01 9.931718055541980394e-01
1.550888529886914613e-01 9.872008000481735657e-01
1.558966074313408723e-01 9.867411360326693304e-01
1.567043618739903110e-01 9.899959370131630187e-01
1.575121163166397498e-01 9.927403796298518435e-01
1.583198707592891885e-01 9.931676434660551278e-01
1.591276252019386273e-01 9.963896041632770428e-01
1.599353796445880660e-01 1.000158313746448480e+00
1.607431340872374770e-01 9.999299321457510992e-01
1.615508885298869157e-01 1.001211033192300537e+00
1.623586429725363545e-01 1.000395692061643249e+00
1.631663974151857932e-01 1.000766632996383576e+00
1.639741518578352319e-01 1.001971829779425560e+00
1.647819063004846707e-01 9.968682626487103127e-01
1.655896607431341094e-01 9.937049174202039481e-01
1.663974151857835204e-01 9.856972440230815646e-01
1.672051696284329592e-01 9.826312046169251024e-01
1.680129240710823979e-01 9.808736240163772324e-01
1.688206785137318366e-01 9.833788434381934840e-01
1.696284329563812754e-01 9.827832569889495273e-01
1.704361873990307141e-01 9.776087001867100890e-01
1.712439418416801529e-01 9.761358307849946625e-01
1.720516962843295639e-01 9.789831139669772364e-01
1.728594507269790026e-01 9.723289320232056943e-01
1.736672051696284413e-01 9.712886068044536136e-01
1.744749596122778801e-01 9.663227361777165791e-01
1.752827140549273188e-01 9.648744951732972641e-01
1.760904684975767576e-01 9.636847000011896647e-01
1.768982229402261686e-01 9.651839671044520896e-01
1.777059773828756073e-01 9.718774193701694708e-01
1.785137318255250460e-01 9.694572578301675625e-01
1.793214862681744848e-01 9.758922401679852587e-01
1.801292407108239235e-01 9.786171091469986205e-01
1.809369951534733623e-01 9.822753860615655030e-01
1.817447495961228010e-01 9.769267083505986937e-01
1.825525040387722120e-01 9.791922362703627813e-01
1.833602584814216507e-01 9.803425280063973180e-01
1.841680129240710895e-01 9.797572943928474221e-01
1.849757673667205282e-01 9.749148752859524425e-01
1.857835218093699670e-01 9.732951708653089229e-01
1.865912762520194057e-01 9.734307207737288303e-01
1.873990306946688444e-01 9.765637778507288980e-01
1.882067851373182554e-01 9.713880936793921617e-01
1.890145395799676942e-01 9.680339575828674770e-01
1.898222940226171329e-01 9.606050083029423758e-01
1.906300484652665717e-01 9.591489133977310066e-01
1.914378029079160104e-01 9.565979709333226610e-01
1.922455573505654491e-01 9.548852897663332451e-01
1.930533117932148879e-01 9.509089059037763025e-01
1.938610662358642989e-01 9.486551404846002011e-01
1.946688206785137376e-01 9.462371792364966394e-01
1.954765751211631764e-01 9.513988430403365060e-01
1.962843295638126151e-01 9.496082507318605037e-01
1.970920840064620538e-01 9.500667004997239706e-01
1.978998384491114926e-01 9.480540919724056437e-01
1.987075928917609036e-01 9.499573002029310098e-01
1.995153473344103423e-01 9.454996336130515600e-01
2.003231017770597810e-01 9.451866411182030525e-01
2.011308562197092198e-01 9.446317924857554615e-01
2.019386106623586585e-01 9.494655020092298559e-01
2.027463651050080973e-01 9.591117077987414419e-01
2.035541195476575360e-01 9.573871577629152751e-01
2.043618739903069470e-01 9.594788301582579670e-01
2.051696284329563857e-01 9.587847254099373107e-01
2.059773828756058245e-01 9.591517735751182716e-01
2.067851373182552632e-01 9.650706095827082942e-01
2.075928917609047020e-01 9.712489256134074767e-01
2.084006462035541407e-01 9.697969614229603463e-01
2.092084006462035795e-01 9.674346397677980880e-01
2.100161550888529904e-01 9.622437699391424015e-01
2.108239095315024292e-01 9.605567579949841894e-01
2.116316639741518679e-01 9.636379411609090617e-01
2.124394184168013067e-01 9.568452686483306380e-01
2.132471728594507454e-01 9.587206481270821312e-01
2.140549273021001841e-01 9.552514698867963228e-01
2.148626817447496229e-01 9.551867843217247689e-01
2.156704361873990339e-01 9.526540748325195151e-01
2.164781906300484726e-01 9.514980391271182780e-01
2.172859450726979114e-01 9.498186188509538663e-01
2.180936995153473501e-01 9.459379849175945099e-01
2.189014539579967888e-01 9.425299504844478760e-01
2.197092084006462276e-01 9.365228922331014783e-01
2.205169628432956386e-01 9.277131942637684148e-01
2.213247172859450773e-01 9.195469168931235115e-01
2.221324717285945161e-01 9.201231157613142253e-01
2.229402261712439548e-01 9.146122385323122161e-01
2.237479806138933935e-01 9.103438282275930771e-01
2.245557350565428323e-01 9.079479649757742354e-01
2.253634894991922710e-01 9.117399255764834232e-01
2.261712439418416820e-01 9.081084048115118934e-01
2.269789983844911208e-01 9.073006687485363209e-01
2.277867528271405595e-01 9.040473141271913038e-01
2.285945072697899982e-01 9.047411596381991217e-01
2.294022617124394370e-01 9.025345971104665743e-01
2.302100161550888757e-01 9.023222757399211869e-01
2.310177705977383145e-01 9.070498688071612081e-01
2.318255250403877255e-01 9.078420969554314990e-01
2.326332794830371642e-01 9.060967671378002963e-01
2.334410339256866029e-01 9.119413716289659355e-01
2.342487883683360417e-01 9.114270532934301006e-01
2.350565428109854804e-01 9.076755042296371645e-01
2.358642972536349192e-01 9.079674509528651294e-01
2.366720516962843579e-01 9.100377648180804080e-01
2.374798061389337689e-01 9.057882430120557382e-01
2.382875605815832076e-01 9.085232935821012656e-01
2.390953150242326464e-01 9.026871901268471721e-01
2.399030694668820851e-01 9.050883527574392629e-01
2.407108239095315239e-01 9.025040409462323776e-01
2.415185783521809626e-01 9.017422999509642212e-01
2.423263327948303736e-01 8.989637789178485106e-01
2.431340872374798123e-01 8.932496302844731284e-01
2.439418416801292511e-01 8.910222660145376006e-01
2.447495961227786898e-01 8.902959673118224782e-01
2.455573505654281286e-01 8.935019985186537506e-01
2.463651050080775673e-01 8.899219128718020011e-01
2.471728594507270060e-01 8.862736982002161756e-01
2.479806138933764170e-01 8.828618238296953580e-01
2.487883683360258558e-01 8.817850791626549167e-01
2.495961227786752945e-01 8.808339447412694145e-01
2.504038772213247332e-01 8.790306359201653930e-01
2.512116316639741442e-01 8.879001691655783457e-01
2.520193861066236107e-01 8.805508109736128741e-01
2.528271405492730217e-01 8.757827234466566413e-01
2.536348949919224882e-01 8.698232091574955582e-01
2.544426494345718992e-01 8.674132528599973746e-01
2.552504038772213657e-01 8.638590743913789893e-01
2.560581583198707767e-01 8.610576779587643115e-01
2.568659127625201877e-01 8.606693732739738589e-01
2.576736672051696542e-01 8.617019665842747811e-01
2.584814216478190652e-01 8.616257384557861609e-01
2.592891760904685317e-01 8.607267129649085469e-01
2.600969305331179426e-01 8.599974824148454156e-01
2.609046849757674091e-01 8.656542261162010199e-01
2.617124394184168201e-01 8.723964913582006320e-01
2.625201938610662311e-01 8.750024058536306493e-01
2.633279483037156976e-01 8.816056053079424082e-01
2.641357027463651086e-01 8.857992656139223042e-01
2.649434571890145751e-01 8.872374188497724745e-01
2.657512116316639861e-01 8.866512616169558436e-01
2.665589660743134526e-01 8.903832831943635506e-01
2.673667205169628636e-01 8.977923848998712320e-01
2.681744749596122745e-01 9.028821943856788490e-01
2.689822294022617410e-01 9.093361867212296223e-01
2.697899838449111520e-01 9.151103690843318539e-01
2.705977382875606185e-01 9.218136678897669301e-01
2.714054927302100295e-01 9.186625919921656003e-01
2.722132471728594405e-01 9.189864523797586227e-01
2.730210016155089070e-01 9.241714534691067851e-01
2.738287560581583180e-01 9.197489981727171582e-01
2.746365105008077845e-01 9.180166464571459795e-01
2.754442649434571955e-01 9.149199647699971516e-01
2.762520193861066620e-01 9.107593634898288881e-01
2.770597738287560730e-01 9.040853495955902819e-01
2.778675282714054839e-01 9.065493640672399600e-01
2.786752827140549504e-01 9.012229516902259263e-01
2.794830371567043614e-01 9.045885819980163944e-01
2.802907915993538279e-01 9.070459615841672818e-01
2.810985460420032389e-01 9.115311434060463514e-01
2.819063004846527054e-01 9.129315814594609613e-01
2.827140549273021164e-01 9.137637424565707711e-01
2.835218093699515274e-01 9.096037487669824673e-01
2.843295638126009939e-01 9.104983907710895163e-01
2.851373182552504049e-01 9.078966180758072380e-01
2.859450726978998714e-01 9.096946320760874727e-01
2.867528271405492823e-01 9.052525766595759249e-01
2.875605815831987488e-01 9.108194583600139893e-01
2.883683360258481598e-01 9.125522141834147005e-01
2.891760904684975708e-01 9.140507185217411346e-01
2.899838449111470373e-01 9.191035200280481821e-01
2.907915993537964483e-01 9.258237720955094785e-01
2.915993537964459148e-01 9.229499455583826117e-01
2.924071082390953258e-01 9.225561791979715043e-01
2.932148626817447923e-01 9.265357384549863795e-01
2.940226171243942033e-01 9.290750882366693997e-01
2.948303715670436143e-01 9.327223963814789132e-01
2.956381260096930808e-01 9.384354799571260619e-01
2.964458804523424917e-01 9.428837725484217058e-01
2.972536348949919582e-01 9.428771076653498229e-01
2.980613893376413692e-01 9.463567399692630611e-01
2.988691437802908357e-01 9.460963857162891788e-01
2.996768982229402467e-01 9.496617061685651562e-01
3.004846526655896577e-01 9.522920852145952963e-01
3.012924071082391242e-01 9.480289045862492214e-01
3.021001615508885352e-01 9.410231807220196254e-01
3.029079159935380017e-01 9.352454861530391517e-01
3.037156704361874127e-01 9.304268628446638045e-01
3.045234248788368792e-01 9.279530621830299753e-01
3.053311793214862901e-01 9.266539011658713187e-01
3.061389337641357011e-01 9.271781818261237706e-01
3.069466882067851676e-01 9.277214801050682746e-01
3.077544426494345786e-01 9.268063737010392433e-01
3.085621970920840451e-01 9.284820473028804200e-01
3.093699515347334561e-01 9.247727333602188127e-01
3.101777059773829226e-01 9.272515707355173387e-01
3.109854604200323336e-01 9.311480359453335742e-01
3.117932148626817446e-01 9.361131677975852439e-01
3.126009693053312111e-01 9.385401855488042511e-01
3.134087237479806221e-01 9.382456026908381208e-01
3.142164781906300886e-01 9.404360976013718121e-01
3.150242326332794995e-01 9.476729783345645419e-01
3.158319870759289105e-01 9.517699530269615460e-01
3.166397415185783770e-01 9.554196667368125562e-01
3.174474959612277880e-01 9.575661238754036297e-01
3.182552504038772545e-01 9.575310863053018151e-01
3.190630048465266655e-01 9.642879480436304940e-01
3.198707592891761320e-01 9.693327294076750089e-01
3.206785137318255430e-01 9.719180036971983849e-01
