# pope % Change in outer leaflet for ppc cyl
#  1st Col = Time (us)	 2nd Col = % Change
0.000000000000000000e+00 -1.747701546307445231e-02
8.077544426494346220e-04 -1.845645393266576173e-02
1.615508885298869244e-03 -2.497531876896741387e-02
2.423263327948304083e-03 -3.138302533212694589e-02
3.231017770597738488e-03 -4.193243152628339798e-02
4.038772213247172893e-03 -5.016780445971374958e-02
4.846526655896608166e-03 -5.796748630199761998e-02
5.654281098546042571e-03 -6.528083938834461364e-02
6.462035541195476976e-03 -7.227266127210685287e-02
7.269789983844911381e-03 -8.084938875402691849e-02
8.077544426494345786e-03 -8.715079028055511268e-02
8.885298869143781059e-03 -8.806920372820703502e-02
9.693053311793216331e-03 -9.311380860956475214e-02
1.050080775444264987e-02 -1.014322419410657455e-01
1.130856219709208514e-02 -1.109381931385724357e-01
1.211631663974151868e-02 -1.172035376138504392e-01
1.292407108239095395e-02 -1.293107461504533207e-01
1.373182552504038922e-02 -1.378019358870931632e-01
1.453957996768982276e-02 -1.453301618325203437e-01
1.534733441033925803e-02 -1.561552390632480192e-01
1.615508885298869157e-02 -1.640091398712137938e-01
1.696284329563812684e-02 -1.698152473107284455e-01
1.777059773828756212e-02 -1.779230250890052045e-01
1.857835218093699739e-02 -1.862188630620478791e-01
1.938610662358643266e-02 -1.905165462972009671e-01
2.019386106623586447e-02 -1.992394030556580153e-01
2.100161550888529974e-02 -2.021520632725503641e-01
2.180936995153473501e-02 -2.072860121438442893e-01
2.261712439418417028e-02 -2.076517682501008433e-01
2.342487883683360556e-02 -2.114359366991281630e-01
2.423263327948303736e-02 -2.149329106146515012e-01
2.504038772213247263e-02 -2.223358125922469397e-01
2.584814216478190790e-02 -2.325451253115992101e-01
2.665589660743134318e-02 -2.395689777147845534e-01
2.746365105008077845e-02 -2.431355605187904556e-01
2.827140549273021025e-02 -2.557756636412577000e-01
2.907915993537964552e-02 -2.667343428592310328e-01
2.988691437802908080e-02 -2.743072735244472260e-01
3.069466882067851607e-02 -2.790602167193723671e-01
3.150242326332795134e-02 -2.816745173219308285e-01
3.231017770597738314e-02 -2.849440666894018093e-01
3.311793214862682189e-02 -2.872379601800134630e-01
3.392568659127625369e-02 -2.929523429919200228e-01
3.473344103392568549e-02 -2.950456672668108626e-01
3.554119547657512423e-02 -2.920665567241469973e-01
3.634894991922455604e-02 -2.956284944314620522e-01
3.715670436187399478e-02 -2.980886382284664848e-01
3.796445880452342658e-02 -3.025078979665454804e-01
3.877221324717286532e-02 -3.084647080731618973e-01
3.957996768982229713e-02 -3.113100764024598344e-01
4.038772213247172893e-02 -3.126725632851837244e-01
4.119547657512116767e-02 -3.159827795201469169e-01
4.200323101777059948e-02 -3.138305719759906243e-01
4.281098546042003822e-02 -3.138548652126408878e-01
4.361873990306947002e-02 -3.142335509095046664e-01
4.442649434571890182e-02 -3.180927905575962611e-01
4.523424878836834057e-02 -3.263181354448328464e-01
4.604200323101777237e-02 -3.339530974872154667e-01
4.684975767366721111e-02 -3.390935599072895101e-01
4.765751211631664291e-02 -3.424822156305972198e-01
4.846526655896607472e-02 -3.487347018202514581e-01
4.927302100161551346e-02 -3.546292684713213128e-01
5.008077544426494526e-02 -3.586706180905417374e-01
5.088852988691438400e-02 -3.574621144185866073e-01
5.169628432956381581e-02 -3.560831410827334231e-01
5.250403877221324761e-02 -3.627479595673482882e-01
5.331179321486268635e-02 -3.629265175640260521e-01
5.411954765751211816e-02 -3.647950937660420778e-01
5.492730210016155690e-02 -3.696653891442107098e-01
5.573505654281098870e-02 -3.762296985992181764e-01
5.654281098546042050e-02 -3.833815273818051983e-01
5.735056542810985925e-02 -3.864950156291568351e-01
5.815831987075929105e-02 -3.930304327208032356e-01
5.896607431340872979e-02 -3.959991001308853509e-01
5.977382875605816159e-02 -3.996921049003157034e-01
6.058158319870759340e-02 -4.043998694863646937e-01
6.138933764135703214e-02 -4.082465240649120752e-01
6.219709208400646394e-02 -4.090372411505495687e-01
6.300484652665590268e-02 -4.127360765685796906e-01
6.381260096930534143e-02 -4.132460264725286159e-01
6.462035541195476629e-02 -4.131714009213024452e-01
6.542810985460420503e-02 -4.171015550089244295e-01
6.623586429725364377e-02 -4.210893484387122632e-01
6.704361873990306864e-02 -4.215874874813312356e-01
6.785137318255250738e-02 -4.273366159996331848e-01
6.865912762520194612e-02 -4.288723100034362301e-01
6.946688206785137099e-02 -4.239958282192476946e-01
7.027463651050080973e-02 -4.206736577919336639e-01
7.108239095315024847e-02 -4.245086324491644802e-01
7.189014539579968721e-02 -4.348808387905429007e-01
7.269789983844911208e-02 -4.405677740190018787e-01
7.350565428109855082e-02 -4.474344819367006565e-01
7.431340872374798956e-02 -4.538453253123339581e-01
7.512116316639741442e-02 -4.565075104956679009e-01
7.592891760904685317e-02 -4.629022636535892743e-01
7.673667205169629191e-02 -4.670116360200237682e-01
7.754442649434573065e-02 -4.697422313479169276e-01
7.835218093699515551e-02 -4.697454716551275888e-01
7.915993537964459426e-02 -4.672027714308674140e-01
7.996768982229403300e-02 -4.709773664622237122e-01
8.077544426494345786e-02 -4.739234489128943406e-01
8.158319870759289660e-02 -4.791493382821727653e-01
8.239095315024233535e-02 -4.830826862047430947e-01
8.319870759289176021e-02 -4.867825533590158238e-01
8.400646203554119895e-02 -4.865149944140428895e-01
8.481421647819063769e-02 -4.840865899059487165e-01
8.562197092084007644e-02 -4.809321917017572168e-01
8.642972536348950130e-02 -4.770028875030218329e-01
8.723747980613894004e-02 -4.746489076251511618e-01
8.804523424878837878e-02 -4.741789392445878715e-01
8.885298869143780365e-02 -4.737101199490852954e-01
8.966074313408724239e-02 -4.719237374214546588e-01
9.046849757673668113e-02 -4.691382261790160713e-01
9.127625201938610600e-02 -4.704440075085961626e-01
9.208400646203554474e-02 -4.674407169046627675e-01
9.289176090468498348e-02 -4.664972306376561351e-01
9.369951534733442222e-02 -4.644024312460938164e-01
9.450726978998384709e-02 -4.622970169721668521e-01
9.531502423263328583e-02 -4.584353296079544116e-01
9.612277867528272457e-02 -4.515404789288098297e-01
9.693053311793214943e-02 -4.418343357265452354e-01
9.773828756058158818e-02 -4.378972208453585369e-01
9.854604200323102692e-02 -4.290712077379760792e-01
9.935379644588045178e-02 -4.221180083979393372e-01
1.001615508885298905e-01 -4.157724128947975495e-01
1.009693053311793293e-01 -4.070778487584625349e-01
1.017770597738287680e-01 -3.999174335541959002e-01
1.025848142164781929e-01 -3.956544188517717164e-01
1.033925686591276316e-01 -3.926562954876557932e-01
1.042003231017770704e-01 -3.914434409396084225e-01
1.050080775444264952e-01 -3.893060801748899347e-01
1.058158319870759340e-01 -3.867886685851531503e-01
1.066235864297253727e-01 -3.820390982014253978e-01
1.074313408723748114e-01 -3.811344792977433005e-01
1.082390953150242363e-01 -3.791069583486557648e-01
1.090468497576736751e-01 -3.778359612723102834e-01
1.098546042003231138e-01 -3.818348075256437490e-01
1.106623586429725387e-01 -3.905706005319768415e-01
1.114701130856219774e-01 -3.882549326258661337e-01
1.122778675282714161e-01 -3.829760082517986719e-01
1.130856219709208410e-01 -3.838158772872776736e-01
1.138933764135702797e-01 -3.858595107305235472e-01
1.147011308562197185e-01 -3.833872575813477845e-01
1.155088852988691572e-01 -3.849801076799411192e-01
1.163166397415185821e-01 -3.853883121279583768e-01
1.171243941841680208e-01 -3.857799505159003051e-01
1.179321486268174596e-01 -3.865717815547303760e-01
1.187399030694668844e-01 -3.881860413328183101e-01
1.195476575121163232e-01 -3.900581340221848103e-01
1.203554119547657619e-01 -3.887402780855475082e-01
1.211631663974151868e-01 -3.914221758897541981e-01
1.219709208400646255e-01 -3.917748885839583695e-01
1.227786752827140643e-01 -3.931813499746585339e-01
1.235864297253635030e-01 -3.954482118805334734e-01
1.243941841680129279e-01 -3.989933220680885184e-01
1.252019386106623666e-01 -4.004292788074785836e-01
1.260096930533118054e-01 -3.990322917915120615e-01
1.268174474959612441e-01 -3.993568859134983828e-01
1.276252019386106829e-01 -3.982259199141917616e-01
1.284329563812600938e-01 -3.969773296518404604e-01
1.292407108239095326e-01 -3.935536829272106019e-01
1.300484652665589713e-01 -3.956027012481368454e-01
1.308562197092084101e-01 -3.928720795757348339e-01
1.316639741518578488e-01 -3.924089680188170837e-01
1.324717285945072875e-01 -3.961842898692567450e-01
1.332794830371567263e-01 -3.954160455576889444e-01
1.340872374798061373e-01 -3.940590219891819679e-01
1.348949919224555760e-01 -3.971055961558853653e-01
1.357027463651050148e-01 -3.986512543259952968e-01
1.365105008077544535e-01 -4.041059424162311009e-01
1.373182552504038922e-01 -4.120389674802092950e-01
1.381260096930533310e-01 -4.198659637069763750e-01
1.389337641357027420e-01 -4.289306795741417710e-01
1.397415185783521807e-01 -4.382991728960224931e-01
1.405492730210016195e-01 -4.441702785669931486e-01
1.413570274636510582e-01 -4.484716852597520065e-01
1.421647819063004969e-01 -4.528490818705386278e-01
1.429725363489499357e-01 -4.612767776862706226e-01
1.437802907915993744e-01 -4.634368405712967487e-01
1.445880452342487854e-01 -4.660150389331136900e-01
1.453957996768982242e-01 -4.714661715614171245e-01
1.462035541195476629e-01 -4.730434182632683449e-01
1.470113085621971016e-01 -4.764746625141079717e-01
1.478190630048465404e-01 -4.757102772388098200e-01
1.486268174474959791e-01 -4.809910916375503831e-01
1.494345718901454179e-01 -4.810220958043512351e-01
1.502423263327948288e-01 -4.806859564384846073e-01
1.510500807754442676e-01 -4.794628076850276366e-01
1.518578352180937063e-01 -4.824761017539297425e-01
1.526655896607431451e-01 -4.864375742969422878e-01
1.534733441033925838e-01 -4.876598203618184857e-01
1.542810985460420226e-01 -4.869657947534519749e-01
1.550888529886914613e-01 -4.848342999986774982e-01
1.558966074313408723e-01 -4.855106273163448116e-01
1.567043618739903110e-01 -4.870787530873043059e-01
1.575121163166397498e-01 -4.862123888052746201e-01
1.583198707592891885e-01 -4.860568895067693407e-01
1.591276252019386273e-01 -4.881959248488401681e-01
1.599353796445880660e-01 -4.912934866521145305e-01
1.607431340872374770e-01 -4.898624165787128781e-01
1.615508885298869157e-01 -4.861347582279441082e-01
1.623586429725363545e-01 -4.825757377774114731e-01
1.631663974151857932e-01 -4.775888693187436695e-01
1.639741518578352319e-01 -4.710632080230506280e-01
1.647819063004846707e-01 -4.654786107272464446e-01
1.655896607431341094e-01 -4.609399880151306972e-01
1.663974151857835204e-01 -4.567246345499766380e-01
1.672051696284329592e-01 -4.538337587907132487e-01
1.680129240710823979e-01 -4.506682217297129922e-01
1.688206785137318366e-01 -4.435608167744009567e-01
1.696284329563812754e-01 -4.412114554025758362e-01
1.704361873990307141e-01 -4.359301400768510470e-01
1.712439418416801529e-01 -4.317459664221227622e-01
1.720516962843295639e-01 -4.253635944972545269e-01
1.728594507269790026e-01 -4.231235296406107849e-01
1.736672051696284413e-01 -4.205165288648885502e-01
1.744749596122778801e-01 -4.207893871369494665e-01
1.752827140549273188e-01 -4.193869059231858376e-01
1.760904684975767576e-01 -4.202736120025742927e-01
1.768982229402261686e-01 -4.195161227056362629e-01
1.777059773828756073e-01 -4.164591459870487511e-01
1.785137318255250460e-01 -4.109622841778617364e-01
1.793214862681744848e-01 -4.091787648414099698e-01
1.801292407108239235e-01 -4.043036004859990595e-01
1.809369951534733623e-01 -4.037371187921910964e-01
1.817447495961228010e-01 -4.038583157383855426e-01
1.825525040387722120e-01 -4.058079257289892716e-01
1.833602584814216507e-01 -4.065945140213241826e-01
1.841680129240710895e-01 -4.094534998265726422e-01
1.849757673667205282e-01 -4.106313176192124548e-01
1.857835218093699670e-01 -4.068350166272745039e-01
1.865912762520194057e-01 -4.059249158731985108e-01
1.873990306946688444e-01 -4.033585194079382097e-01
1.882067851373182554e-01 -4.058100511468576976e-01
1.890145395799676942e-01 -3.985978805278547199e-01
1.898222940226171329e-01 -3.990270821651898947e-01
1.906300484652665717e-01 -4.016198136429986465e-01
1.914378029079160104e-01 -4.003308642219353675e-01
1.922455573505654491e-01 -4.012248163314328653e-01
1.930533117932148879e-01 -3.984494492674347521e-01
1.938610662358642989e-01 -3.960010611361040600e-01
1.946688206785137376e-01 -3.952956090810210710e-01
1.954765751211631764e-01 -3.995287508778004870e-01
1.962843295638126151e-01 -4.000062175122569008e-01
1.970920840064620538e-01 -3.977489321845912862e-01
1.978998384491114926e-01 -3.983834278323378775e-01
1.987075928917609036e-01 -4.016253102574494083e-01
1.995153473344103423e-01 -4.041299604899137865e-01
2.003231017770597810e-01 -4.044791241607132437e-01
2.011308562197092198e-01 -4.072352947474618956e-01
2.019386106623586585e-01 -4.114939045498998693e-01
2.027463651050080973e-01 -4.194343316571951252e-01
2.035541195476575360e-01 -4.287103344046358511e-01
2.043618739903069470e-01 -4.381985662364061840e-01
2.051696284329563857e-01 -4.501279065900710696e-01
2.059773828756058245e-01 -4.605005922391553486e-01
2.067851373182552632e-01 -4.699024610082227493e-01
2.075928917609047020e-01 -4.790351669189931716e-01
2.084006462035541407e-01 -4.893724474155133897e-01
2.092084006462035795e-01 -5.041033247059221178e-01
2.100161550888529904e-01 -5.116476747658446067e-01
2.108239095315024292e-01 -5.231724051317044877e-01
2.116316639741518679e-01 -5.398040335455800420e-01
2.124394184168013067e-01 -5.533410506612455038e-01
2.132471728594507454e-01 -5.650702591131452346e-01
2.140549273021001841e-01 -5.764073700266181266e-01
2.148626817447496229e-01 -5.854028719280884863e-01
2.156704361873990339e-01 -5.929735935397159041e-01
2.164781906300484726e-01 -5.986407233912290904e-01
2.172859450726979114e-01 -6.031319345453028946e-01
2.180936995153473501e-01 -6.110699546437572405e-01
2.189014539579967888e-01 -6.179956758936626660e-01
2.197092084006462276e-01 -6.211489254693506323e-01
2.205169628432956386e-01 -6.292399626320854811e-01
2.213247172859450773e-01 -6.358453027408460523e-01
2.221324717285945161e-01 -6.424330078236816233e-01
2.229402261712439548e-01 -6.478598071527054136e-01
2.237479806138933935e-01 -6.521029035402194918e-01
2.245557350565428323e-01 -6.603344898364823523e-01
2.253634894991922710e-01 -6.667998732318157762e-01
2.261712439418416820e-01 -6.781909507006952387e-01
2.269789983844911208e-01 -6.870767585875650063e-01
2.277867528271405595e-01 -6.993317294661851591e-01
2.285945072697899982e-01 -7.099866468613453829e-01
2.294022617124394370e-01 -7.202179195058153738e-01
2.302100161550888757e-01 -7.263466482955867054e-01
2.310177705977383145e-01 -7.330988622990295411e-01
2.318255250403877255e-01 -7.386489486822603867e-01
2.326332794830371642e-01 -7.428782193767787811e-01
2.334410339256866029e-01 -7.502160480612023452e-01
2.342487883683360417e-01 -7.556199954642828231e-01
2.350565428109854804e-01 -7.628156866874027386e-01
2.358642972536349192e-01 -7.666411043193039898e-01
2.366720516962843579e-01 -7.675389866889594792e-01
2.374798061389337689e-01 -7.721466239724784630e-01
2.382875605815832076e-01 -7.804382149145078218e-01
2.390953150242326464e-01 -7.837732066345349802e-01
2.399030694668820851e-01 -7.885973058833949390e-01
2.407108239095315239e-01 -7.941415361203620904e-01
2.415185783521809626e-01 -7.980954140056981672e-01
2.423263327948303736e-01 -8.047002654253470055e-01
2.431340872374798123e-01 -8.068384420379609567e-01
2.439418416801292511e-01 -8.074053971507495486e-01
2.447495961227786898e-01 -8.092452935635745526e-01
2.455573505654281286e-01 -8.143029157817345265e-01
2.463651050080775673e-01 -8.196555905772056061e-01
2.471728594507270060e-01 -8.249621389512682423e-01
2.479806138933764170e-01 -8.288653872746458706e-01
2.487883683360258558e-01 -8.338819287011051129e-01
2.495961227786752945e-01 -8.365279060725505644e-01
2.504038772213247332e-01 -8.444933675564779696e-01
2.512116316639741442e-01 -8.468478430376222832e-01
2.520193861066236107e-01 -8.512444619523057421e-01
2.528271405492730217e-01 -8.549214510254938837e-01
2.536348949919224882e-01 -8.547729570376145780e-01
2.544426494345718992e-01 -8.525754777438933063e-01
2.552504038772213657e-01 -8.511909377703191781e-01
2.560581583198707767e-01 -8.530092442718477663e-01
2.568659127625201877e-01 -8.569947482633344382e-01
2.576736672051696542e-01 -8.580329166364055737e-01
2.584814216478190652e-01 -8.555589848926684615e-01
2.592891760904685317e-01 -8.565750746466270771e-01
2.600969305331179426e-01 -8.567114598485251475e-01
2.609046849757674091e-01 -8.573455357809947053e-01
2.617124394184168201e-01 -8.560487306736394020e-01
2.625201938610662311e-01 -8.567255322350546543e-01
2.633279483037156976e-01 -8.577886069115757683e-01
2.641357027463651086e-01 -8.585567136210802142e-01
2.649434571890145751e-01 -8.555435046565448287e-01
2.657512116316639861e-01 -8.574376724720897958e-01
2.665589660743134526e-01 -8.578908438124174252e-01
2.673667205169628636e-01 -8.576437367293674452e-01
2.681744749596122745e-01 -8.572039129029013216e-01
2.689822294022617410e-01 -8.538105926876990992e-01
2.697899838449111520e-01 -8.558250847429487163e-01
2.705977382875606185e-01 -8.574041556714814272e-01
2.714054927302100295e-01 -8.535028466052467788e-01
2.722132471728594405e-01 -8.532277613575500741e-01
2.730210016155089070e-01 -8.551900530018955449e-01
2.738287560581583180e-01 -8.521091641601193922e-01
2.746365105008077845e-01 -8.511311169018216383e-01
2.754442649434571955e-01 -8.484364024618398226e-01
2.762520193861066620e-01 -8.484667667767226140e-01
2.770597738287560730e-01 -8.487456189454872790e-01
2.778675282714054839e-01 -8.446342538056523797e-01
2.786752827140549504e-01 -8.377544787052388919e-01
2.794830371567043614e-01 -8.348619001310086940e-01
2.802907915993538279e-01 -8.312227285097044671e-01
2.810985460420032389e-01 -8.265548584971403878e-01
2.819063004846527054e-01 -8.238041375111202491e-01
2.827140549273021164e-01 -8.175419874336817827e-01
2.835218093699515274e-01 -8.130866725289431773e-01
2.843295638126009939e-01 -8.118248045752656239e-01
2.851373182552504049e-01 -8.106205370679886446e-01
2.859450726978998714e-01 -8.021938802623276299e-01
2.867528271405492823e-01 -7.968370471323062976e-01
2.875605815831987488e-01 -7.936936291142652200e-01
2.883683360258481598e-01 -7.891840680422883558e-01
2.891760904684975708e-01 -7.854674905835551391e-01
2.899838449111470373e-01 -7.800828773796644189e-01
2.907915993537964483e-01 -7.745122268532576015e-01
2.915993537964459148e-01 -7.708301729750710596e-01
2.924071082390953258e-01 -7.645054441596917938e-01
2.932148626817447923e-01 -7.606500932672949356e-01
2.940226171243942033e-01 -7.583635069023364483e-01
2.948303715670436143e-01 -7.512380390659451068e-01
2.956381260096930808e-01 -7.465033261743393433e-01
2.964458804523424917e-01 -7.396743752062547861e-01
2.972536348949919582e-01 -7.328001998528805849e-01
2.980613893376413692e-01 -7.247050913046474419e-01
2.988691437802908357e-01 -7.166168293561004932e-01
2.996768982229402467e-01 -7.093414579837702405e-01
3.004846526655896577e-01 -7.028878122846046184e-01
3.012924071082391242e-01 -6.967195701439508060e-01
3.021001615508885352e-01 -6.953878455608916154e-01
3.029079159935380017e-01 -6.925402618297314961e-01
3.037156704361874127e-01 -6.838168446947920920e-01
3.045234248788368792e-01 -6.762850990102089455e-01
3.053311793214862901e-01 -6.709061894604845255e-01
3.061389337641357011e-01 -6.625832388373752435e-01
3.069466882067851676e-01 -6.532872143027892431e-01
3.077544426494345786e-01 -6.409749750740967311e-01
3.085621970920840451e-01 -6.282413906415973415e-01
3.093699515347334561e-01 -6.224798648685915259e-01
3.101777059773829226e-01 -6.117691611563225162e-01
3.109854604200323336e-01 -6.047645049630454572e-01
3.117932148626817446e-01 -6.025712901487356721e-01
3.126009693053312111e-01 -5.958744430089638611e-01
3.134087237479806221e-01 -5.871649706793745649e-01
3.142164781906300886e-01 -5.849089129822692135e-01
