# popc % Change in outer leaflet for ppc cyl
#  1st Col = Time (us)	 2nd Col = % Change
0.000000000000000000e+00 -1.143581257449008959e-01
8.077544426494346220e-04 -1.206060566770852105e-01
1.615508885298869244e-03 -1.192425448880343047e-01
2.423263327948304083e-03 -1.191562334644973298e-01
3.231017770597738488e-03 -1.141511370015107080e-01
4.038772213247172893e-03 -1.051748949540385475e-01
4.846526655896608166e-03 -9.887328313148535663e-02
5.654281098546042571e-03 -9.184336438935702951e-02
6.462035541195476976e-03 -8.222006231505485374e-02
7.269789983844911381e-03 -7.315665691865191889e-02
8.077544426494345786e-03 -6.380019648928647591e-02
8.885298869143781059e-03 -6.202894509567880021e-02
9.693053311793216331e-03 -5.404252905167017396e-02
1.050080775444264987e-02 -4.256596905576425643e-02
1.130856219709208514e-02 -3.083348567812714894e-02
1.211631663974151868e-02 -2.203557921675924555e-02
1.292407108239095395e-02 -9.267030412496875952e-03
1.373182552504038922e-02 -2.914925905417284943e-04
1.453957996768982276e-02 8.048351697780073769e-03
1.534733441033925803e-02 2.371916382702355178e-02
1.615508885298869157e-02 3.762257148609161189e-02
1.696284329563812684e-02 4.728663355194484552e-02
1.777059773828756212e-02 6.309896263994474452e-02
1.857835218093699739e-02 7.662074738068169744e-02
1.938610662358643266e-02 9.138273345561188921e-02
2.019386106623586447e-02 1.068647387087897638e-01
2.100161550888529974e-02 1.169900225835602825e-01
2.180936995153473501e-02 1.325969388006262850e-01
2.261712439418417028e-02 1.437117777013774689e-01
2.342487883683360556e-02 1.524394512754181641e-01
2.423263327948303736e-02 1.627600464695657667e-01
2.504038772213247263e-02 1.760044398130091725e-01
2.584814216478190790e-02 1.923291355667495761e-01
2.665589660743134318e-02 2.060811226114978023e-01
2.746365105008077845e-02 2.153991257336842768e-01
2.827140549273021025e-02 2.334697290698792838e-01
2.907915993537964552e-02 2.495698999646313865e-01
2.988691437802908080e-02 2.650006994870668375e-01
3.069466882067851607e-02 2.774711219634375947e-01
3.150242326332795134e-02 2.928001406584934685e-01
3.231017770597738314e-02 3.036302492355784644e-01
3.311793214862682189e-02 3.173120095495873816e-01
3.392568659127625369e-02 3.326089445704690228e-01
3.473344103392568549e-02 3.444942440755026092e-01
3.554119547657512423e-02 3.502331082808965435e-01
3.634894991922455604e-02 3.606981594236480237e-01
3.715670436187399478e-02 3.645236400115197117e-01
3.796445880452342658e-02 3.739349620040897659e-01
3.877221324717286532e-02 3.890913486664320797e-01
3.957996768982229713e-02 4.028600047433710807e-01
4.038772213247172893e-02 4.151673086806420554e-01
4.119547657512116767e-02 4.293175961054742640e-01
4.200323101777059948e-02 4.391904052293204574e-01
4.281098546042003822e-02 4.495972543459236803e-01
4.361873990306947002e-02 4.606045937680676716e-01
4.442649434571890182e-02 4.698147023338332673e-01
4.523424878836834057e-02 4.824945632857615685e-01
4.604200323101777237e-02 4.945200300760405621e-01
4.684975767366721111e-02 5.043575680487122348e-01
4.765751211631664291e-02 5.107154044122192982e-01
4.846526655896607472e-02 5.167537516570375189e-01
4.927302100161551346e-02 5.238917971911285498e-01
5.008077544426494526e-02 5.281660246430608385e-01
5.088852988691438400e-02 5.229812488843224028e-01
5.169628432956381581e-02 5.243796049238800272e-01
5.250403877221324761e-02 5.297071802401641660e-01
5.331179321486268635e-02 5.319422748522095734e-01
5.411954765751211816e-02 5.364912239414377781e-01
5.492730210016155690e-02 5.444655359843466602e-01
5.573505654281098870e-02 5.535363026599326997e-01
5.654281098546042050e-02 5.583822641242576212e-01
5.735056542810985925e-02 5.656736308224421528e-01
5.815831987075929105e-02 5.734791410166427683e-01
5.896607431340872979e-02 5.764832055526671883e-01
5.977382875605816159e-02 5.804036120278155408e-01
6.058158319870759340e-02 5.871589539901576060e-01
6.138933764135703214e-02 5.884502741929182879e-01
6.219709208400646394e-02 5.940852910053532332e-01
6.300484652665590268e-02 5.982068980568332472e-01
6.381260096930534143e-02 6.055426291351875268e-01
6.462035541195476629e-02 6.110735664665294387e-01
6.542810985460420503e-02 6.178693679265363503e-01
6.623586429725364377e-02 6.250684437688088790e-01
6.704361873990306864e-02 6.276993681134381831e-01
6.785137318255250738e-02 6.380464601818003345e-01
6.865912762520194612e-02 6.404045269775804350e-01
6.946688206785137099e-02 6.397048848804007815e-01
7.027463651050080973e-02 6.416659070113837071e-01
7.108239095315024847e-02 6.473242394019234069e-01
7.189014539579968721e-02 6.605681317196162583e-01
7.269789983844911208e-02 6.684740326632729879e-01
7.350565428109855082e-02 6.751715944295849647e-01
7.431340872374798956e-02 6.864139012980756682e-01
7.512116316639741442e-02 6.939025008569861264e-01
7.592891760904685317e-02 7.053299151815146661e-01
7.673667205169629191e-02 7.132315114112741661e-01
7.754442649434573065e-02 7.200512959226340604e-01
7.835218093699515551e-02 7.253208388394689621e-01
7.915993537964459426e-02 7.276625434300415529e-01
7.996768982229403300e-02 7.359314227988285051e-01
8.077544426494345786e-02 7.412029028989612911e-01
8.158319870759289660e-02 7.514525006287832154e-01
8.239095315024233535e-02 7.578807160912064411e-01
8.319870759289176021e-02 7.617687281541278832e-01
8.400646203554119895e-02 7.650737428298797216e-01
8.481421647819063769e-02 7.623372454010446386e-01
8.562197092084007644e-02 7.620212843745686193e-01
8.642972536348950130e-02 7.607804071783728084e-01
8.723747980613894004e-02 7.573533546336325140e-01
8.804523424878837878e-02 7.621879272294942442e-01
8.885298869143780365e-02 7.693456902759161498e-01
8.966074313408724239e-02 7.724471172980063027e-01
9.046849757673668113e-02 7.742050235437822892e-01
9.127625201938610600e-02 7.859565685979464922e-01
9.208400646203554474e-02 7.876045539311329335e-01
9.289176090468498348e-02 7.945137604320368085e-01
9.369951534733442222e-02 7.982301241131058989e-01
9.450726978998384709e-02 8.009549244606407603e-01
9.531502423263328583e-02 8.008191012987484481e-01
9.612277867528272457e-02 7.993178919292661666e-01
9.693053311793214943e-02 7.993392292216645600e-01
9.773828756058158818e-02 8.056397529546235337e-01
9.854604200323102692e-02 8.025653414311464395e-01
9.935379644588045178e-02 8.037054693686451756e-01
1.001615508885298905e-01 8.052400953495676417e-01
1.009693053311793293e-01 8.006474791234922117e-01
1.017770597738287680e-01 8.035214304527625861e-01
1.025848142164781929e-01 8.015030667386964236e-01
1.033925686591276316e-01 8.011500020432613667e-01
1.042003231017770704e-01 8.024237052259004521e-01
1.050080775444264952e-01 7.978581934437907197e-01
1.058158319870759340e-01 7.943845145843557720e-01
1.066235864297253727e-01 7.916831516044066097e-01
1.074313408723748114e-01 7.955861160947118593e-01
1.082390953150242363e-01 7.932000899148685669e-01
1.090468497576736751e-01 7.960243282498393746e-01
1.098546042003231138e-01 7.984477041503260653e-01
1.106623586429725387e-01 8.020042577553374574e-01
1.114701130856219774e-01 8.030467277470724197e-01
1.122778675282714161e-01 7.959932645233347426e-01
1.130856219709208410e-01 7.961601420794267581e-01
1.138933764135702797e-01 7.995275139845086088e-01
1.147011308562197185e-01 7.983249920847139691e-01
1.155088852988691572e-01 8.000149938317534515e-01
1.163166397415185821e-01 7.992875771980836319e-01
1.171243941841680208e-01 7.975202405389866245e-01
1.179321486268174596e-01 7.991487471212868066e-01
1.187399030694668844e-01 7.986649561029743882e-01
1.195476575121163232e-01 7.961313144859814006e-01
1.203554119547657619e-01 7.927527034142696216e-01
1.211631663974151868e-01 7.934357089622294801e-01
1.219709208400646255e-01 7.913074934322044118e-01
1.227786752827140643e-01 7.903001524691666280e-01
1.235864297253635030e-01 7.914831042714978171e-01
1.243941841680129279e-01 7.942250829953978464e-01
1.252019386106623666e-01 8.001588374813677351e-01
1.260096930533118054e-01 7.983748448899942174e-01
1.268174474959612441e-01 7.974266724246616977e-01
1.276252019386106829e-01 8.019339044201476696e-01
1.284329563812600938e-01 8.002571795152296774e-01
1.292407108239095326e-01 7.980412376454618650e-01
1.300484652665589713e-01 8.025806348728770079e-01
1.308562197092084101e-01 8.023042060042722134e-01
1.316639741518578488e-01 7.999552925530716285e-01
1.324717285945072875e-01 8.039109827294644850e-01
1.332794830371567263e-01 8.021665828607098536e-01
1.340872374798061373e-01 7.995095191613909025e-01
1.348949919224555760e-01 8.052896545138330531e-01
1.357027463651050148e-01 8.097202816100068645e-01
1.365105008077544535e-01 8.156816144161965765e-01
1.373182552504038922e-01 8.191522539947329040e-01
1.381260096930533310e-01 8.229132659344604583e-01
1.389337641357027420e-01 8.315251886031037598e-01
1.397415185783521807e-01 8.397869757632397958e-01
1.405492730210016195e-01 8.419765281747827457e-01
1.413570274636510582e-01 8.483374176448852388e-01
1.421647819063004969e-01 8.534047824212961375e-01
1.429725363489499357e-01 8.632091750559079957e-01
1.437802907915993744e-01 8.658267158535318808e-01
1.445880452342487854e-01 8.682835423055658142e-01
1.453957996768982242e-01 8.792080352250924991e-01
1.462035541195476629e-01 8.856377193196405262e-01
1.470113085621971016e-01 8.904928980211064271e-01
1.478190630048465404e-01 8.903205335639161611e-01
1.486268174474959791e-01 8.983834026243315840e-01
1.494345718901454179e-01 9.002729565609216555e-01
1.502423263327948288e-01 9.033325532950103876e-01
1.510500807754442676e-01 9.050407673177737200e-01
1.518578352180937063e-01 9.099187283743750410e-01
1.526655896607431451e-01 9.195642894581906868e-01
1.534733441033925838e-01 9.234526846428220415e-01
1.542810985460420226e-01 9.276710724365210270e-01
1.550888529886914613e-01 9.256989882497728139e-01
1.558966074313408723e-01 9.292104130893072966e-01
1.567043618739903110e-01 9.359821343777278146e-01
1.575121163166397498e-01 9.377043824194852828e-01
1.583198707592891885e-01 9.431119222062002150e-01
1.591276252019386273e-01 9.501378171383449978e-01
1.599353796445880660e-01 9.617444611123389109e-01
1.607431340872374770e-01 9.607607815834587894e-01
1.615508885298869157e-01 9.619018612253050771e-01
1.623586429725363545e-01 9.607209155183928928e-01
1.631663974151857932e-01 9.606519821290142591e-01
1.639741518578352319e-01 9.569344363341401039e-01
1.647819063004846707e-01 9.504696961550475054e-01
1.655896607431341094e-01 9.473822540716899665e-01
1.663974151857835204e-01 9.441228320837521393e-01
1.672051696284329592e-01 9.430415882882089429e-01
1.680129240710823979e-01 9.405287657501857357e-01
1.688206785137318366e-01 9.343775270758108986e-01
1.696284329563812754e-01 9.317900516841285397e-01
1.704361873990307141e-01 9.276853772485562644e-01
1.712439418416801529e-01 9.260225368329976225e-01
1.720516962843295639e-01 9.247082666043586752e-01
1.728594507269790026e-01 9.235469326765971543e-01
1.736672051696284413e-01 9.221308332083698600e-01
1.744749596122778801e-01 9.236707575564974126e-01
1.752827140549273188e-01 9.227957007980576165e-01
1.760904684975767576e-01 9.211788376223344343e-01
1.768982229402261686e-01 9.197927114651829328e-01
1.777059773828756073e-01 9.211502641821137649e-01
1.785137318255250460e-01 9.160296082727309441e-01
1.793214862681744848e-01 9.188812667742201068e-01
1.801292407108239235e-01 9.169305744709496109e-01
1.809369951534733623e-01 9.182199527620619195e-01
1.817447495961228010e-01 9.185031271626802329e-01
1.825525040387722120e-01 9.219496148308123917e-01
1.833602584814216507e-01 9.222876396817056843e-01
1.841680129240710895e-01 9.270705255865081540e-01
1.849757673667205282e-01 9.278194868240033921e-01
1.857835218093699670e-01 9.247698509100690245e-01
1.865912762520194057e-01 9.234818589729477667e-01
1.873990306946688444e-01 9.226002229157670431e-01
1.882067851373182554e-01 9.210151909931643122e-01
1.890145395799676942e-01 9.123700871829321102e-01
1.898222940226171329e-01 9.087110560936100256e-01
1.906300484652665717e-01 9.109351316025739997e-01
1.914378029079160104e-01 9.128387056977349534e-01
1.922455573505654491e-01 9.141591517769366293e-01
1.930533117932148879e-01 9.082893481554696891e-01
1.938610662358642989e-01 9.109741668188955366e-01
1.946688206785137376e-01 9.097937922163977786e-01
1.954765751211631764e-01 9.160021127690944898e-01
1.962843295638126151e-01 9.160997365109146973e-01
1.970920840064620538e-01 9.117272650176058146e-01
1.978998384491114926e-01 9.133095354571497682e-01
1.987075928917609036e-01 9.170969470367594800e-01
1.995153473344103423e-01 9.170292330019216287e-01
2.003231017770597810e-01 9.149719745504865109e-01
2.011308562197092198e-01 9.175984019916829659e-01
2.019386106623586585e-01 9.221829453288605816e-01
2.027463651050080973e-01 9.377648718351418999e-01
2.035541195476575360e-01 9.470950488265991174e-01
2.043618739903069470e-01 9.585549626832405856e-01
2.051696284329563857e-01 9.718163734937393938e-01
2.059773828756058245e-01 9.833815123087690235e-01
2.067851373182552632e-01 9.964114871492454339e-01
2.075928917609047020e-01 1.008373485446198536e+00
2.084006462035541407e-01 1.018400805748290949e+00
2.092084006462035795e-01 1.036148345390454972e+00
2.100161550888529904e-01 1.044774895048816710e+00
2.108239095315024292e-01 1.058888165357031896e+00
2.116316639741518679e-01 1.076720072457100219e+00
2.124394184168013067e-01 1.091556412585713121e+00
2.132471728594507454e-01 1.105337991302182576e+00
2.140549273021001841e-01 1.119814591840501583e+00
2.148626817447496229e-01 1.132002525043932728e+00
2.156704361873990339e-01 1.141536064661863747e+00
2.164781906300484726e-01 1.151600214541003586e+00
2.172859450726979114e-01 1.158300360039111521e+00
2.180936995153473501e-01 1.166048577509719575e+00
2.189014539579967888e-01 1.173396619289620801e+00
2.197092084006462276e-01 1.173989483785517596e+00
2.205169628432956386e-01 1.180240270385852996e+00
2.213247172859450773e-01 1.186501142353981519e+00
2.221324717285945161e-01 1.194272785612330745e+00
2.229402261712439548e-01 1.199315999895537388e+00
2.237479806138933935e-01 1.204502463294230941e+00
2.245557350565428323e-01 1.211650641757213709e+00
2.253634894991922710e-01 1.220614339053916142e+00
2.261712439418416820e-01 1.230529716120116523e+00
2.269789983844911208e-01 1.237972833843609566e+00
2.277867528271405595e-01 1.248433167856190851e+00
2.285945072697899982e-01 1.261032289307105980e+00
2.294022617124394370e-01 1.267721941103267191e+00
2.302100161550888757e-01 1.271723528419960392e+00
2.310177705977383145e-01 1.279449563597549133e+00
2.318255250403877255e-01 1.280799618349402147e+00
2.326332794830371642e-01 1.278460710193178862e+00
2.334410339256866029e-01 1.288444850160147315e+00
2.342487883683360417e-01 1.291078208247534054e+00
2.350565428109854804e-01 1.295619559750198713e+00
2.358642972536349192e-01 1.299135574977549057e+00
2.366720516962843579e-01 1.300551949291607334e+00
2.374798061389337689e-01 1.303487043373938059e+00
2.382875605815832076e-01 1.312631181424870563e+00
2.390953150242326464e-01 1.311215220202041953e+00
2.399030694668820851e-01 1.314044079409266708e+00
2.407108239095315239e-01 1.317597591087297682e+00
2.415185783521809626e-01 1.322458795689117395e+00
2.423263327948303736e-01 1.330321455125451413e+00
2.431340872374798123e-01 1.324402264200576829e+00
2.439418416801292511e-01 1.324128508119005510e+00
2.447495961227786898e-01 1.320986657977099021e+00
2.455573505654281286e-01 1.321081659850933843e+00
2.463651050080775673e-01 1.319493114761990160e+00
2.471728594507270060e-01 1.321171981649380101e+00
2.479806138933764170e-01 1.320998464833135433e+00
2.487883683360258558e-01 1.322808766205507025e+00
2.495961227786752945e-01 1.318615122712689436e+00
2.504038772213247332e-01 1.319427249897640042e+00
2.512116316639741442e-01 1.318269879604616390e+00
2.520193861066236107e-01 1.317662442197498285e+00
2.528271405492730217e-01 1.311718403925055343e+00
2.536348949919224882e-01 1.305274120866452670e+00
2.544426494345718992e-01 1.294871694132202711e+00
2.552504038772213657e-01 1.290736192563082918e+00
2.560581583198707767e-01 1.286163080949344284e+00
2.568659127625201877e-01 1.285695684862516508e+00
2.576736672051696542e-01 1.285205091805876387e+00
2.584814216478190652e-01 1.278613521669674791e+00
2.592891760904685317e-01 1.273029923394127794e+00
2.600969305331179426e-01 1.268265459716032995e+00
2.609046849757674091e-01 1.268045190567448799e+00
2.617124394184168201e-01 1.263673616775451425e+00
2.625201938610662311e-01 1.256896887215259717e+00
2.633279483037156976e-01 1.257057133681281025e+00
2.641357027463651086e-01 1.254742807448184339e+00
2.649434571890145751e-01 1.252524813487339905e+00
2.657512116316639861e-01 1.249457521816876859e+00
2.665589660743134526e-01 1.249393990768163487e+00
2.673667205169628636e-01 1.250616328304416935e+00
2.681744749596122745e-01 1.250546926877958542e+00
2.689822294022617410e-01 1.247343606356757117e+00
2.697899838449111520e-01 1.251482720408266580e+00
2.705977382875606185e-01 1.257618736268560022e+00
2.714054927302100295e-01 1.251014632625090384e+00
2.722132471728594405e-01 1.253124255991300284e+00
2.730210016155089070e-01 1.263845752226004704e+00
2.738287560581583180e-01 1.258680684419543061e+00
2.746365105008077845e-01 1.255613511523996362e+00
2.754442649434571955e-01 1.251185800613784149e+00
2.762520193861066620e-01 1.247459999370328809e+00
2.770597738287560730e-01 1.244294482407915847e+00
2.778675282714054839e-01 1.237949933807489966e+00
2.786752827140549504e-01 1.227515627114516006e+00
2.794830371567043614e-01 1.226078502382587088e+00
2.802907915993538279e-01 1.221750730667269469e+00
2.810985460420032389e-01 1.217935792107471382e+00
2.819063004846527054e-01 1.216656287344983989e+00
2.827140549273021164e-01 1.210455424668381630e+00
2.835218093699515274e-01 1.208319332166750026e+00
2.843295638126009939e-01 1.206939457559723206e+00
2.851373182552504049e-01 1.209795250792938370e+00
2.859450726978998714e-01 1.207856263094039262e+00
2.867528271405492823e-01 1.204313992782890974e+00
2.875605815831987488e-01 1.203922498216960291e+00
2.883683360258481598e-01 1.203734977264538042e+00
2.891760904684975708e-01 1.200526121997528284e+00
2.899838449111470373e-01 1.202268332334385015e+00
2.907915993537964483e-01 1.200697287469108199e+00
2.915993537964459148e-01 1.196672725494850376e+00
2.924071082390953258e-01 1.190463822413384776e+00
2.932148626817447923e-01 1.191804120377615073e+00
2.940226171243942033e-01 1.193384119754783201e+00
2.948303715670436143e-01 1.191503260688096644e+00
2.956381260096930808e-01 1.191098346762254234e+00
2.964458804523424917e-01 1.189339721475678902e+00
2.972536348949919582e-01 1.185927060407470979e+00
2.980613893376413692e-01 1.179882054985923467e+00
2.988691437802908357e-01 1.175824817014636814e+00
2.996768982229402467e-01 1.176865858828687550e+00
3.004846526655896577e-01 1.176405590287780578e+00
3.012924071082391242e-01 1.170643617297163486e+00
3.021001615508885352e-01 1.171819881196368263e+00
3.029079159935380017e-01 1.175483344937385821e+00
3.037156704361874127e-01 1.168345271936092944e+00
3.045234248788368792e-01 1.163314822272536242e+00
3.053311793214862901e-01 1.158043250928314061e+00
3.061389337641357011e-01 1.155562995899826584e+00
3.069466882067851676e-01 1.148803202797606726e+00
3.077544426494345786e-01 1.140684355669853378e+00
3.085621970920840451e-01 1.130700305032610986e+00
3.093699515347334561e-01 1.126516319122206511e+00
3.101777059773829226e-01 1.119873376106720331e+00
3.109854604200323336e-01 1.116729820515287575e+00
3.117932148626817446e-01 1.118716262036292264e+00
3.126009693053312111e-01 1.114934093597527820e+00
3.134087237479806221e-01 1.105281720594593065e+00
3.142164781906300886e-01 1.104115789255572189e+00
3.150242326332794995e-01 1.102293932863743997e+00
3.158319870759289105e-01 1.105310624231387928e+00
3.166397415185783770e-01 1.106394178140281737e+00
3.174474959612277880e-01 1.109864454044795501e+00
3.182552504038772545e-01 1.115702764502993105e+00
3.190630048465266655e-01 1.123316882552182872e+00
3.198707592891761320e-01 1.132230183582561223e+00
